# RiF 1e-20 (cm^2/W)
# 1w(eV) RpP                     RpS                     RsP                     RsS
00.01    1.29052151846654e-07    2.42429997753873e-09    6.36048413741993e+32    6.21527344781742e-10
00.02    1.72870776455143e-07    3.24896107172561e-09    7.42937596152025e+32    8.32942872488586e-10
00.03    2.67681073449198e-07    5.03400268383951e-09    9.55610168799397e+32    1.29056471632747e-09
00.04    4.27796483718437e-07    8.05047559718011e-09    1.27213432738595e+33    2.06387367087421e-09
00.05    6.74603977485959e-07    1.27039543330187e-08    1.69019237195754e+33    3.25683135312402e-09
00.06    1.03646422265989e-06    1.95333311659925e-08    2.20751157951287e+33    5.00756772891728e-09
00.07    1.54858743291389e-06    2.92093732116684e-08    2.82215453875506e+33    7.48800647993037e-09
00.08    2.25290151788175e-06    4.25333475366917e-08    3.53262617131322e+33    1.09035075045671e-08
00.09    3.19793246787764e-06    6.04360880439562e-08    4.33783480441552e+33    1.54926220060266e-08
00.10    4.43871297192650e-06    8.39778007282902e-08    5.23698003282647e+33    2.15270371429551e-08
00.11    6.03672610921007e-06    1.14348740498889e-07    6.22943165441805e+33    2.93117433735479e-08
00.12    8.05988086951117e-06    1.52870700163926e-07    7.31463485958994e+33    3.91854095953853e-08
00.13    1.05825097008861e-05    2.00999139568910e-07    8.49204984149487e+33    5.15209204089184e-08
00.14    1.36853766059656e-05    2.60325758982582e-07    9.76111916300212e+33    6.67260218644761e-08
00.15    1.74556865758778e-05    3.32581335468948e-07    1.11212520747016e+34    8.52440345645516e-08
00.16    2.19870913605358e-05    4.19638756391383e-07    1.25718189999313e+34    1.07554612677627e-07
00.17    2.73796903164834e-05    5.23516198622841e-07    1.41121494668844e+34    1.34174544155373e-07
00.18    3.37400273104467e-05    6.46380481320567e-07    1.57415306375491e+34    1.65658598352769e-07
00.19    4.11810858012409e-05    7.90550643721016e-07    1.74592074342648e+34    2.02600430381760e-07
00.20    4.98222833844434e-05    9.58501776829723e-07    1.92643827206366e+34    2.45633549683013e-07
00.21    5.97894666273018e-05    1.15286917286465e-06    2.11562175576927e+34    2.95432361284571e-07
00.22    7.12149061256548e-05    1.37645276841366e-06    2.31338314572595e+34    3.52713283997264e-07
00.23    8.42372910779043e-05    1.63222191039809e-06    2.51963025963089e+34    4.18235952209390e-07
00.24    9.90017238570368e-05    1.92332039022488e-06    2.73426679880293e+34    4.92804505798884e-07
00.25    1.15659715020873e-04    2.25307180912285e-06    2.95719236163619e+34    5.77268970982314e-07
00.26    1.34369180144714e-04    2.62498534442807e-06    3.18830246656345e+34    6.72526736612528e-07
00.27    1.55294439086025e-04    3.04276198062715e-06    3.42748858574769e+34    7.79524127672725e-07
00.28    1.78606217306196e-04    3.51030131485811e-06    3.67463819474566e+34    8.99258080303747e-07
00.29    2.04481647508187e-04    4.03170888599330e-06    3.92963482300814e+34    1.03277792130832e-06
00.30    2.33104269803143e-04    4.61130395385791e-06    4.19235809786790e+34    1.18118725961976e-06
00.31    2.64664029520446e-04    5.25362760126897e-06    4.46268377126818e+34    1.34564599314549e-06
00.32    2.99357272385946e-04    5.96345100146405e-06    4.74048372349866e+34    1.52737243768373e-06
00.33    3.37386737744422e-04    6.74578389323014e-06    5.02562596003305e+34    1.72764558602910e-06
00.34    3.78961552537904e-04    7.60588350153643e-06    5.31797460496801e+34    1.94780750282091e-06
00.35    4.24297227555880e-04    8.54926416954408e-06    5.61738991548446e+34    2.18926586905137e-06
00.36    4.73615660770838e-04    9.58170816059457e-06    5.92372833011798e+34    2.45349669541500e-06
00.37    5.27145148880049e-04    1.07092776435675e-05    6.23684254769801e+34    2.74204721299756e-06
00.38    5.85120406301844e-04    1.19383276340800e-05    6.55658162721246e+34    3.05653896155003e-06
00.39    6.47782583930616e-04    1.32755195471744e-05    6.88279107584801e+34    3.39867106950258e-06
00.40    7.15379280300581e-04    1.47278349544005e-05    7.21531289370122e+34    3.77022373148433e-06
00.41    7.88164539909038e-04    1.63025895896732e-05    7.55398556941331e+34    4.17306188348872e-06
00.42    8.66398842171509e-04    1.80074478868508e-05    7.89864404238331e+34    4.60913909595946e-06
00.43    9.50349092596692e-04    1.98504384926350e-05    8.24911967771352e+34    5.08050170473506e-06
00.44    1.04028862908916e-03    2.18399712233200e-05    8.60524028271447e+34    5.58929320726256e-06
00.45    1.13649725067315e-03    2.39848557056984e-05    8.96683017966428e+34    6.13775894451313e-06
00.46    1.23926126527674e-03    2.62943218790020e-05    9.33371031622932e+34    6.72825109341858e-06
00.47    1.34887354276008e-03    2.87780421172989e-05    9.70569838540183e+34    7.36323398531200e-06
00.48    1.46563355672571e-03    3.14461545545315e-05    1.00826089160137e+35    8.04528977873961e-06
00.49    1.58984740448050e-03    3.43092870085614e-05    1.04642533279514e+35    8.77712450710833e-06
00.50    1.72182781284983e-03    3.73785815316687e-05    1.08504399479818e+35    9.56157451372509e-06
00.51    1.86189413939598e-03    4.06657199989410e-05    1.12409740040916e+35    1.04016132794285e-05
00.52    2.01037239195673e-03    4.41829517760086e-05    1.16356576251884e+35    1.13003586779868e-05
00.53    2.16759527125960e-03    4.79431242897005e-05    1.20342898530101e+35    1.22610807006403e-05
00.54    2.33390223361669e-03    5.19597163374775e-05    1.24366666693118e+35    1.32872097196664e-05
00.55    2.50963956309634e-03    5.62468738086990e-05    1.28425810365407e+35    1.43823453809715e-05
00.56    2.69516044260170e-03    6.08194469944066e-05    1.32518229641095e+35    1.55502661713364e-05
00.57    2.89082502144301e-03    6.56930298300591e-05    1.36641796097299e+35    1.67949396305936e-05
00.58    3.09700047768155e-03    7.08840018184010e-05    1.40794354082888e+35    1.81205333179965e-05
00.59    3.31406108373017e-03    7.64095733650432e-05    1.44973722046767e+35    1.95314264204446e-05
00.60    3.54238828056616e-03    8.22878349926501e-05    1.49177693430155e+35    2.10322221734228e-05
00.61    3.78237076748381e-03    8.85378103589079e-05    1.53404037057760e+35    2.26277612862323e-05
00.62    4.03440461847439e-03    9.51795134852147e-05    1.57650497021839e+35    2.43231364777001e-05
00.63    4.29889341965366e-03    1.02234011080595e-04    1.61914792571971e+35    2.61237084512701e-05
00.64    4.57624841647262e-03    1.09723489924872e-04    1.66194618116172e+35    2.80351230544426e-05
00.65    4.86688865618841e-03    1.17671329000217e-04    1.70487643446851e+35    3.00633293978561e-05
00.66    5.17124112024973e-03    1.26102174437567e-04    1.74791514158638e+35    3.22145986688918e-05
00.67    5.48974086124228e-03    1.35042017545316e-04    1.79103852383023e+35    3.44955436599974e-05
00.68    5.82283115362143e-03    1.44518277002585e-04    1.83422258065980e+35    3.69131397810878e-05
00.69    6.17096366237103e-03    1.54559889463760e-04    1.87744310510102e+35    3.94747485358406e-05
00.70    6.53459863061547e-03    1.65197411133315e-04    1.92067569784328e+35    4.21881442874611e-05
00.71    6.91420508154345e-03    1.76463131954879e-04    1.96389577325134e+35    4.50615443486144e-05
00.72    7.31026107058690e-03    1.88391201342681e-04    2.00707855353137e+35    4.81036418151616e-05
00.73    7.72325399788196e-03    2.01017762848190e-04    2.05019905600856e+35    5.13236402468078e-05
00.74    8.15368098941413e-03    2.14381097966229e-04    2.09323208404678e+35    5.47312899361684e-05
00.75    8.60204928796850e-03    2.28521778439844e-04    2.13615223349856e+35    5.83369261183397e-05
00.76    9.06887660463485e-03    2.43482831029041e-04    2.17893391751500e+35    6.21515104863452e-05
00.77    9.55469139271837e-03    2.59309916640647e-04    2.22155140603952e+35    6.61866772098216e-05
00.78    1.00600331011870e-02    2.76051529095383e-04    2.26397886126015e+35    7.04547848064234e-05
00.79    1.05854524935185e-02    2.93759216935247e-04    2.30619035168827e+35    7.49689741553101e-05
00.80    1.11315121143918e-02    3.12487828904252e-04    2.34815983941915e+35    7.97432323003913e-05
00.81    1.16987869094864e-02    3.32295782032933e-04    2.38986114893240e+35    8.47924611527359e-05
00.82    1.22878649056076e-02    3.53245351175967e-04    2.43126793822552e+35    9.01325511086326e-05
00.83    1.28993479049911e-02    3.75402982096351e-04    2.47235368749881e+35    9.57804609510115e-05
00.84    1.35338521623450e-02    3.98839638038322e-04    2.51309171250904e+35    1.01754307301929e-04
00.85    1.41920091275283e-02    4.23631192630905e-04    2.55345519108538e+35    1.08073467048220e-04
00.86    1.48744663172025e-02    4.49858879639725e-04    2.59341718793322e+35    1.14758695147337e-04
00.87    1.55818883585388e-02    4.77609805845854e-04    2.63295066732375e+35    1.21832258172474e-04
00.88    1.63149581264035e-02    5.06977524826122e-04    2.67202849119210e+35    1.29318082488439e-04
00.89    1.70743778898118e-02    5.38062672770582e-04    2.71062341689319e+35    1.37241917730867e-04
00.90    1.78608704278943e-02    5.70973675903235e-04    2.74870810508657e+35    1.45631518663254e-04
00.91    1.86751801861610e-02    6.05827550535288e-04    2.78625514347255e+35    1.54516852591420e-04
00.92    1.95180746076700e-02    6.42750822513218e-04    2.82323707791161e+35    1.63930339637044e-04
00.93    2.03903458108118e-02    6.81880595228323e-04    2.85962643289971e+35    1.73907132999199e-04
00.94    2.12928126323179e-02    7.23365785350394e-04    2.89539570328892e+35    1.84485442938329e-04
00.95    2.22263228977328e-02    7.67368548108101e-04    2.93051731506456e+35    1.95706907708299e-04
00.96    2.31917557145740e-02    8.14065926770242e-04    2.96496357563264e+35    2.07617019688837e-04
00.97    2.41900236598051e-02    8.63651785996784e-04    2.99870664020966e+35    2.20265623126415e-04
00.98    2.52220752163332e-02    9.16339117181971e-04    3.03171851826138e+35    2.33707510424682e-04
00.99    2.62888982586311e-02    9.72362784077332e-04    3.06397112105770e+35    2.48003141144762e-04
01.00    2.73915257946085e-02    1.03198267693588e-03    3.09543632557842e+35    2.63219481448783e-04
01.01    2.85310446747778e-02    1.09548698312606e-03    3.12608602616473e+35    2.79430894739981e-04
01.02    2.97086069063285e-02    1.16319492105030e-03    3.15589214929129e+35    2.96719913082117e-04
01.03    3.09254410861043e-02    1.23545790083796e-03    3.18482663041028e+35    3.15177613388261e-04
01.04    3.21828594432802e-02    1.31265799173865e-03    3.21286136406902e+35    3.34903289557077e-04
01.05    3.34822547023223e-02    1.39520315819778e-03    3.23996814930758e+35    3.56003254979039e-04
01.06    3.48250818221697e-02    1.48352024655640e-03    3.26611864737010e+35    3.78589004993416e-04
01.07    3.62128234470342e-02    1.57804905005566e-03    3.29128436213438e+35    4.02775589013804e-04
01.08    3.76469445553072e-02    1.67924310725503e-03    3.31543664693416e+35    4.28681671850846e-04
01.09    3.91288496922617e-02    1.78758372579964e-03    3.33854672875696e+35    4.56433001941900e-04
01.10    4.06598618365692e-02    1.90361133992675e-03    3.36058574470852e+35    4.86170399055259e-04
01.11    4.22412423723480e-02    2.02797179214746e-03    3.38152477797640e+35    5.18061667115777e-04
01.12    4.38742639743330e-02    2.16146539127790e-03    3.40133488920714e+35    5.52314269200384e-04
01.13    4.55603334898500e-02    2.30507690770604e-03    3.41998713804912e+35    5.89183030612458e-04
01.14    4.73011445527522e-02    2.45996020139122e-03    3.43745259146690e+35    6.28965927310438e-04
01.15    4.90988253336855e-02    2.62735685572441e-03    3.45370231446438e+35    6.71982481309587e-04
01.16    5.09560418760655e-02    2.80844633847519e-03    3.46870734030945e+35    7.18534048757802e-04
01.17    5.28760231391564e-02    3.00415300626342e-03    3.48243862829905e+35    7.68852632440732e-04
01.18    5.48624883696058e-02    3.21496467676535e-03    3.49486701849742e+35    8.23052659466533e-04
01.19    5.69194744431145e-02    3.44083694247968e-03    3.50596318953802e+35    8.81105386858537e-04
01.20    5.90510748985686e-02    3.68125601455894e-03    3.51569762420577e+35    9.42855322663861e-04
01.21    6.12611115977970e-02    3.93550484468483e-03    3.52404057271172e+35    1.00809071532954e-03
01.22    6.35527677935340e-02    4.20312507298977e-03    3.53096200675418e+35    1.07666637700933e-03
01.23    6.59282248414104e-02    4.48450245751038e-03    3.53643155840567e+35    1.14865988102496e-03
01.24    6.83883682651981e-02    4.78144369975464e-03    3.54041844574297e+35    1.22452621593753e-03
01.25    7.09326584192396e-02    5.09757770095568e-03    3.54289139112350e+35    1.30520651050338e-03
01.26    7.35592806457740e-02    5.43841968621889e-03    3.54381853218845e+35    1.39214762426191e-03
01.27    7.62656772603129e-02    5.81098891929943e-03    3.54316732968768e+35    1.48720300647500e-03
01.28    7.90495001757742e-02    6.22296415377738e-03    3.54090446479004e+35    1.59240986218319e-03
01.29    8.19099060266902e-02    6.68147784919868e-03    3.53699571809801e+35    1.70966874905186e-03
01.30    8.48489712228340e-02    7.19176486318529e-03    3.53140581291834e+35    1.84038239995024e-03
01.31    8.78728778912681e-02    7.75596498513095e-03    3.52409821213745e+35    1.98513321822368e-03
01.32    9.09924685618583e-02    8.37240772997397e-03    3.51503486301803e+35    2.14348705905612e-03
01.33    9.42228257339430e-02    9.03566860121863e-03    3.50417589041955e+35    2.31400085386213e-03
01.34    9.75817041545884e-02    9.73757907267356e-03    3.49147924091856e+35    2.49448338400713e-03
01.35    1.01086889211683e-01    1.04692126886956e-02    3.47690026966045e+35    2.68251590814190e-03
01.36    1.04752805937517e-01    1.12236830588373e-02    3.46039125839899e+35    2.87618940994030e-03
01.37    1.08586888248418e-01    1.19994090037451e-02    3.44190084857336e+35    3.07496673827850e-03
01.38    1.12586298699318e-01    1.28033613906491e-02    3.42137339728417e+35    3.28053997868451e-03
01.39    1.16735569988040e-01    1.36537344712418e-02    3.39874828858543e+35    3.49753396129762e-03
01.40    1.21005666362161e-01    1.45815005665410e-02    3.37395925016653e+35    3.73391117085838e-03
01.41    1.25354895412279e-01    1.56304167026809e-02    3.34693370740759e+35    4.00096322388700e-03
01.42    1.29732068667370e-01    1.68552440459092e-02    3.31759217716091e+35    4.31282683408850e-03
01.43    1.34082301381616e-01    1.83181878015373e-02    3.28584764885926e+35    4.68553024496911e-03
01.44    1.38355799770999e-01    2.00838246904988e-02    3.25160489654110e+35    5.13564820990601e-03
01.45    1.42519829417589e-01    2.22130124099491e-02    3.21475973727432e+35    5.67870665598590e-03
01.46    1.46573730943406e-01    2.47564353314885e-02    3.17519844085291e+35    6.32752153202010e-03
01.47    1.50566333896914e-01    2.77485306954447e-02    3.13279780746116e+35    7.09067698016830e-03
01.48    1.54614479682095e-01    3.12025942023047e-02    3.08742687754242e+35    7.97135409535343e-03
01.49    1.58920769766682e-01    3.51079514359209e-02    3.03895170884671e+35    8.96673214103438e-03
01.50    1.63788366829949e-01    3.94302562323759e-02    2.98724484768467e+35    1.00682186956892e-02
01.51    1.69630922605786e-01    4.41162130135216e-02    2.93220071150750e+35    1.12628248179155e-02
01.52    1.76976481941020e-01    4.91041354542371e-02    2.87375673344714e+35    1.25360456880392e-02
01.53    1.86465057267078e-01    5.43414003658579e-02    2.81191763386871e+35    1.38765454901125e-02
01.54    1.98839521825640e-01    5.98085890726235e-02    2.74677723943672e+35    1.52826476805602e-02
01.55    2.14927567282953e-01    6.55476137806179e-02    2.67853060562318e+35    1.67699856530918e-02
01.56    2.35608894522639e-01    7.16876030817710e-02    2.60747071444007e+35    1.83786917815415e-02
01.57    2.61758783996864e-01    7.84587585331770e-02    2.53396961467200e+35    2.01774397720094e-02
01.58    2.94160720206302e-01    8.61825278665201e-02    2.45845167319214e+35    2.22609900479466e-02
01.59    3.33390586322922e-01    9.52282821185191e-02    2.38137159010509e+35    2.47382329313877e-02
01.60    3.79692819196161e-01    1.05933476236960e-01    2.30320771390851e+35    2.77095255150213e-02
01.61    4.32887452021657e-01    1.18495395257340e-01    2.22447307803222e+35    3.12353111019782e-02
01.62    4.92353045873200e-01    1.32855032518697e-01    2.14573964785714e+35    3.53018024810509e-02
01.63    5.57111485635624e-01    1.48602481408915e-01    2.06767342009700e+35    3.97924471795704e-02
01.64    6.25994458190145e-01    1.64933827360121e-01    1.99108871461622e+35    4.44744682899481e-02
01.65    6.97814846307943e-01    1.80680448423457e-01    1.91703610283014e+35    4.90073069111048e-02
01.66    7.71431659891348e-01    1.94415767047282e-01    1.84692301875885e+35    5.29749119628281e-02
01.67    8.45615639737065e-01    2.04627582428131e-01    1.78262544432338e+35    5.59382105871255e-02
01.68    9.18702452497135e-01    2.09931245410304e-01    1.72650365550553e+35    5.74995383323041e-02
01.69    9.88135360779955e-01    2.09291767122249e-01    1.68122278344933e+35    5.73682781458702e-02
01.70    1.05009752704623e+00    2.02220132641025e-01    1.64932986871096e+35    5.54164296455951e-02
01.71    1.09946330554131e+00    1.88909523990023e-01    1.63264745991785e+35    5.17139591733659e-02
01.72    1.13023215946877e+00    1.70282400791717e-01    1.63166109223201e+35    4.65365480490785e-02
01.73    1.13646171433489e+00    1.47932124398681e-01    1.64513579387799e+35    4.03428869402865e-02
01.74    1.11353516992748e+00    1.23962503306140e-01    1.67014835931271e+35    3.37243859477845e-02
01.75    1.05944708270685e+00    1.00749205410421e-01    1.70257624307631e+35    2.73354112418184e-02
01.76    9.75731330630581e-01    8.06599662751809e-02    1.73790654936888e+35    2.18149785346179e-02
01.77    8.67721724177258e-01    6.57715728379132e-02    1.77210760228040e+35    1.77105084557501e-02
01.78    7.44019544237608e-01    5.76142654146757e-02    1.80229920243705e+35    1.54119624878435e-02
01.79    6.15280889102992e-01    5.69669726369383e-02    1.82706044967675e+35    1.51025622514803e-02
01.80    4.92635211777156e-01    6.37257017177940e-02    1.84636363341083e+35    1.67315837940419e-02
01.81    3.86122873862042e-01    7.68705790975486e-02    1.86124239456094e+35    2.00146773367208e-02
01.82    3.03470103112575e-01    9.45558438782998e-02    1.87334691008728e+35    2.44657340145582e-02
01.83    2.49352325922856e-01    1.14332980963683e-01    1.88451287455808e+35    2.94599404439796e-02
01.84    2.25122501408697e-01    1.33488937676892e-01    1.89641229853731e+35    3.43207609993531e-02
01.85    2.28882079490264e-01    1.49447576048715e-01    1.91030244691926e+35    3.84166389523305e-02
01.86    2.55779407008049e-01    1.60157534454232e-01    1.92686499266465e+35    4.12493415782170e-02
01.87    2.98502440715204e-01    1.64385953963270e-01    1.94612786193728e+35    4.25171060076813e-02
01.88    3.48017302700169e-01    1.61858713304656e-01    1.96747204034868e+35    4.21418762200576e-02
01.89    3.94618766778175e-01    1.53226712035798e-01    1.98972935064882e+35    4.02587134862318e-02
01.90    4.29271116720405e-01    1.39880154300751e-01    2.01136700206815e+35    3.71738324147304e-02
01.91    4.45059111470678e-01    1.23664484902200e-01    2.03073300706831e+35    3.33031545596178e-02
01.92    4.38423601487422e-01    1.06564665124359e-01    2.04631424273684e+35    2.91048110282168e-02
01.93    4.09820293319637e-01    9.04193934438931e-02    2.05694867790925e+35    2.50173253997851e-02
01.94    3.63562870684684e-01    7.67099011026342e-02    2.06194245420047e+35    2.14117726176776e-02
01.95    3.06858683336717e-01    6.64461602179708e-02    2.06106899894783e+35    1.85623873934986e-02
