# RiF 1e-20 (cm^2/W)
# 1w(eV) RpP                     RpS                     RsP                     RsS
00.01    3.70686672857124e-11    2.73129099616878e-05    3.45656777673303e-09    2.61663649468369e-06
00.02    5.05566484495852e-11    3.67631329627346e-05    4.66496417193266e-09    3.52286100319782e-06
00.03    8.02125980248314e-11    5.72975569221496e-05    7.29679861955241e-09    5.49244307206902e-06
00.04    1.31558914673554e-10    9.22057365264301e-05    1.17869894670943e-08    8.84187956037243e-06
00.05    2.13296652816233e-10    1.46476233274658e-04    1.88001030482108e-08    1.40515254515314e-05
00.06    3.37840929067014e-10    2.26863311639456e-04    2.92453922927476e-08    2.17725097954532e-05
00.07    5.22097661490424e-10    3.41980608621388e-04    4.42978087445095e-08    3.28364636060330e-05
00.08    7.88546950920902e-10    5.02428089799276e-04    6.54261303284335e-08    4.82687146785300e-05
00.09    1.16672208586227e-09    7.20960434973311e-04    9.44297099714454e-08    6.93058010220868e-05
00.10    1.69520813842119e-09    1.01270557454036e-03    1.33485591028615e-07    9.74182372692597e-05
00.11    2.42432144819879e-09    1.39544190483208e-03    1.85207906042079e-07    1.34339483316205e-04
00.12    3.41969259453266e-09    1.88994264760694e-03    2.52721719292194e-07    1.82102108145653e-04
00.13    4.76704893457973e-09    2.52039688543161e-03    3.39753919659808e-07    2.43082307321343e-04
00.14    6.57860664529077e-09    3.31491957108620e-03    4.50744508376723e-07    3.20054299494750e-04
00.15    9.00163470161334e-09    4.30616720922403e-03    5.90982685084093e-07    4.16256652082942e-04
00.16    1.22299669813206e-08    5.53208180036409e-03    7.66773553078632e-07    5.35473359585517e-04
00.17    1.65195401697779e-08    7.03679317213267e-03    9.85643063293425e-07    6.82133424988827e-04
00.18    2.22094781724637e-08    8.87171913724011e-03    1.25659116109300e-06    8.61433973726017e-04
00.19    2.97508627582965e-08    1.10969151116854e-02    1.59040618973798e-06    1.07949360376736e-03
00.20    3.97462645348074e-08    1.37827412469843e-02    2.00005776155161e-06    1.34354505298310e-03
00.21    5.30045189068408e-08    1.70119380351663e-02    2.50119110896661e-06    1.66217966671278e-03
00.22    7.06173825178465e-08    2.08822342768674e-02    3.11275403997469e-06    2.04566119060498e-03
00.23    9.40679838032391e-08    2.55096595638967e-02    3.85779939662792e-06    2.50633398909717e-03
00.24    1.25386503141642e-07    3.10328057144171e-02    4.76452300959656e-06    3.05916258370049e-03
00.25    1.67376999354166e-07    3.76183922107970e-02    5.86762307682373e-06    3.72245797403226e-03
00.26    2.23953406042015e-07    4.54686614271218e-02    7.21010647173636e-06    4.51887596256199e-03
00.27    3.00644382844003e-07    5.48313913091600e-02    8.84572908348030e-06    5.47681970256591e-03
00.28    4.05359608545539e-07    6.60137059935280e-02    1.08423536718359e-05    6.63245113949100e-03
00.29    5.49555217817742e-07    7.94014208481297e-02    1.32866570527293e-05    8.03262142221036e-03
00.30    7.49991815008952e-07    9.54863797770940e-02    1.62908399847844e-05    9.73917101202947e-03
00.31    1.03133081835544e-06    1.14905031562663e-01    2.00023054748224e-05    1.18352115307499e-02
00.32    1.42983225983635e-06    1.38492060216603e-01    2.46176750956331e-05    1.44341333042948e-02
00.33    1.99834519168463e-06    1.67352653650870e-01    3.04029612825890e-05    1.76920769587316e-02
00.34    2.81255895532509e-06    2.02955015839065e-01    3.77220735924051e-05    2.18242900332516e-02
00.35    3.97806409070372e-06    2.47239911065432e-01    4.70758443018821e-05    2.71249412800250e-02
00.36    5.63717368929061e-06    3.02735501852473e-01    5.91530280007343e-05    3.39884048791812e-02
00.37    7.97385209238757e-06    3.72653767533686e-01    7.48928466375253e-05    4.29277245950585e-02
00.38    1.12149187095169e-05    4.60931562956660e-01    9.55553374507280e-05    5.45831868101849e-02
00.39    1.56267048611625e-05    5.72169685150965e-01    1.22791128629940e-04    6.97113409488330e-02
00.40    2.15094376823390e-05    7.11424074155494e-01    1.58697002785506e-04    8.91434941904083e-02
00.41    2.91974504970549e-05    8.83821348463229e-01    2.05839012249341e-04    1.13704034392366e-01
00.42    3.90816038960826e-05    1.09400970473969e+00    2.67222626400577e-04    1.44084201838370e-01
00.43    5.16789950812876e-05    1.34551175138609e+00    3.46191055075311e-04    1.80676890352014e-01
00.44    6.77795810598721e-05    1.64010442719859e+00    4.46239769262383e-04    2.23392230823695e-01
00.45    8.86931665327430e-05    1.97739076896506e+00    5.70747786662740e-04    2.71489559232317e-01
00.46    1.16597081253321e-04    2.35472475392652e+00    7.22643581873648e-04    3.23473751801252e-01
00.47    1.54942900279534e-04    2.76758816244633e+00    9.04042226401941e-04    3.77105673882269e-01
00.48    2.08826431692846e-04    3.21040271278377e+00    1.11590374165913e-03    4.29561078083091e-01
00.49    2.85176450527740e-04    3.67762514389157e+00    1.35776091700826e-03    4.77738041068426e-01
00.50    3.92599904778064e-04    4.16487445241263e+00    1.62754000970861e-03    5.18667022492760e-01
00.51    5.40760554832541e-04    4.66983812558170e+00    1.92145217649001e-03    5.49935773602235e-01
00.52    7.39277866808780e-04    5.19282548669904e+00    2.23388758754436e-03    5.70022714858593e-01
00.53    9.96301334387791e-04    5.73704786537053e+00    2.55723438826150e-03    5.78449682569468e-01
00.54    1.31709596569173e-03    6.30890798211765e+00    2.88160611422315e-03    5.75716062494508e-01
00.55    1.70309291936104e-03    6.91864290417538e+00    3.19459865597238e-03    5.63043406175406e-01
00.56    2.15183815100304e-03    7.58148517887193e+00    3.48136269922669e-03    5.42016660054331e-01
00.57    2.65807249672192e-03    8.31908405699975e+00    3.72537241651374e-03    5.14233446508249e-01
00.58    3.21583266810647e-03    9.16039523269606e+00    3.91019418835564e-03    4.81059025425569e-01
00.59    3.82108649917436e-03    1.01408467383551e+01    4.02227028899583e-03    4.43540557345522e-01
00.60    4.47415975658680e-03    1.12985898314979e+01    4.05430221015505e-03    4.02479247157831e-01
00.61    5.18119973882714e-03    1.26672257422463e+01    4.00841788760018e-03    3.58612607658480e-01
00.62    5.95418302926928e-03    1.42655370027467e+01    3.89813353914139e-03    3.12834091611446e-01
00.63    6.80942434649228e-03    1.60861591959413e+01    3.74829300088112e-03    2.66376662891347e-01
00.64    7.76500857954276e-03    1.80862932341102e+01    3.59265567038823e-03    2.20905770969031e-01
00.65    8.83786470739248e-03    2.01839005711307e+01    3.46943824974220e-03    1.78497109035706e-01
00.66    1.00412117826866e-02    2.22619516375783e+01    3.41566666153917e-03    1.41506509762182e-01
00.67    1.13828349200950e-02    2.41812587908198e+01    3.46148143317121e-03    1.12365873302085e-01
00.68    1.28642132382748e-02    2.57998097309584e+01    3.62549791052407e-03    9.33548122393058e-02
00.69    1.44801167956549e-02    2.69942946814770e+01    3.91200968998875e-03    8.63998090560720e-02
00.70    1.62181081906908e-02    2.76786259170674e+01    4.31037391136787e-03    9.29408285009325e-02
00.71    1.80575389182127e-02    2.78151131938149e+01    4.79647742598341e-03    1.13882285713628e-01
00.72    1.99681077729120e-02    2.74162601698837e+01    5.33586169318158e-03    1.49617214450894e-01
00.73    2.19086889166316e-02    2.65379442267098e+01    5.88792580476456e-03    2.00089676143845e-01
00.74    2.38276479295939e-02    2.52669385104679e+01    6.41061028922947e-03    2.64851014029527e-01
00.75    2.56659146360529e-02    2.37065998407928e+01    6.86502553680420e-03    3.43077025047721e-01
00.76    2.73634614839134e-02    2.19640034536518e+01    7.21956307305872e-03    4.33543288600036e-01
00.77    2.88686087353506e-02    2.01403630245256e+01    7.45308779783429e-03    5.34591443581991e-01
00.78    3.01481424210721e-02    1.83249888543509e+01    7.55687321766645e-03    6.44139564355518e-01
00.79    3.11952102091256e-02    1.65919369991426e+01    7.53504812059479e-03    7.59777765233924e-01
00.80    3.20319216267136e-02    1.49981582963529e+01    7.40348607956450e-03    8.78944500809942e-01
00.81    3.27047435769183e-02    1.35822658681996e+01    7.18725513396668e-03    9.99120357704517e-01
00.82    3.32728913033869e-02    1.23636692300332e+01    6.91689934935575e-03    1.11793990534951e+00
00.83    3.37923052989893e-02    1.13424028629292e+01    6.62392595921327e-03    1.23313927440351e+00
00.84    3.42996265804149e-02    1.05002527419919e+01    6.33596132301615e-03    1.34233228574101e+00
00.85    3.48010792186573e-02    9.80368170404714e+00    6.07217755156483e-03    1.44271023657931e+00
00.86    3.52699567862958e-02    9.20865759011019e+00    5.83977892606809e-03    1.53083541864776e+00
00.87    3.56536994253302e-02    8.66696860795924e+00    5.63245743133172e-03    1.60269765314762e+00
00.88    3.58882149864959e-02    8.13314825907650e+00    5.43159289011355e-03    1.65411409550045e+00
00.89    3.59144774612452e-02    7.57086626196964e+00    5.21045581470775e-03    1.68141034846029e+00
00.90    3.56917677956779e-02    6.95764831825963e+00    4.94082861032649e-03    1.68219197185082e+00
00.91    3.52036585945817e-02    6.28707696421879e+00    4.60057269072955e-03    1.65596197429892e+00
00.92    3.44562576579363e-02    5.56814009796667e+00    4.18012967034675e-03    1.60438605330222e+00
00.93    3.34716493665750e-02    4.82200871829105e+00    3.68606512769626e-03    1.53112810355461e+00
00.94    3.22811607133468e-02    4.07707306646602e+00    3.14058870271773e-03    1.44131612595486e+00
00.95    3.09222153756099e-02    3.36338742137603e+00    2.57723618561451e-03    1.34079584236390e+00
00.96    2.94397519019751e-02    2.70768060397306e+00    2.03408845355818e-03    1.23535767516527e+00
00.97    2.78901609683878e-02    2.12980351025098e+00    1.54656103405847e-03    1.13009070177679e+00
00.98    2.63441318672036e-02    1.64102515526824e+00    1.14170577163911e-03    1.02895596800786e+00
00.99    2.48853585495699e-02    1.24411244550571e+00    8.35236643344737e-04    9.34611788947194e-01
01.00    2.36041248030102e-02    9.34767899009446e-01    6.31485548704487e-04    8.48479281325680e-01
01.01    2.25870556757316e-02    7.03820861386659e-01    5.25620741264426e-04    7.71004521456006e-01
01.02    2.19056787984347e-02    5.39570317034402e-01    5.06995404523950e-04    7.02046795551312e-01
01.03    2.16065369809916e-02    4.29813579405250e-01    5.62495499395991e-04    6.41299965572282e-01
01.04    2.17047862115710e-02    3.63297487914906e-01    6.79103020052711e-04    5.88645017467455e-01
01.05    2.21821061091648e-02    3.30531178537393e-01    8.45378322185305e-04    5.44347160834819e-01
01.06    2.29888029553514e-02    3.24052328687379e-01    1.05199699558605e-03    5.09052671792542e-01
01.07    2.40493931719568e-02    3.38317578292273e-01    1.29172356932154e-03    4.83598329593880e-01
01.08    2.52707118377825e-02    3.69395239512683e-01    1.55922470219715e-03    4.68700356586209e-01
01.09    2.65515781324714e-02    4.14597352444758e-01    1.85095958777571e-03    4.64621356292570e-01
01.10    2.77930990960161e-02    4.72129778409602e-01    2.16513532049947e-03    4.70913239036136e-01
01.11    2.89086570958528e-02    5.40789647707043e-01    2.50150207534364e-03    4.86304691482198e-01
01.12    2.98324650378595e-02    6.19712810686085e-01    2.86068527424249e-03    5.08756676241650e-01
01.13    3.05254084475501e-02    7.08168955950213e-01    3.24284825594883e-03    5.35665363830583e-01
01.14    3.09769645088564e-02    8.05408022015859e-01    3.64571857166908e-03    5.64161899975163e-01
01.15    3.12024946263419e-02    9.10565478011895e-01    4.06231096262152e-03    5.91448140320701e-01
01.16    3.12361442649123e-02    1.02262765090912e+00    4.47894029305787e-03    6.15114827724875e-01
01.17    3.11207161112041e-02    1.14044216396799e+00    4.87424959645614e-03    6.33406563672064e-01
01.18    3.08968395765925e-02    1.26274151927973e+00    5.21991721930140e-03    6.45418043471638e-01
01.19    3.05941824349841e-02    1.38814143714485e+00    5.48341784235129e-03    6.51221497116489e-01
01.20    3.02271247335429e-02    1.51508744738739e+00    5.63270717579005e-03    6.51931738776476e-01
01.21    2.97962435065982e-02    1.64175287096514e+00    5.64207200708313e-03    6.49711306526290e-01
01.22    2.92953692942777e-02    1.76592935366941e+00    5.49782790195576e-03    6.47705833291112e-01
01.23    2.87222943642584e-02    1.88498265782519e+00    5.20230630304820e-03    6.49884861579160e-01
01.24    2.80899585148985e-02    1.99595636401431e+00    4.77484462306583e-03    6.60755074908694e-01
01.25    2.74345534091590e-02    2.09588439403319e+00    4.24927886836839e-03    6.84921415683344e-01
01.26    2.68176479606681e-02    2.18231894971609e+00    3.66848937453278e-03    7.26502788692637e-01
01.27    2.63209799109515e-02    2.25400421267506e+00    3.07745252721219e-03    7.88459852024351e-01
01.28    2.60345438945524e-02    2.31154896262601e+00    2.51662896290549e-03    8.71947897854376e-01
01.29    2.60404958050895e-02    2.35789962115565e+00    2.01723338137755e-03    9.75844580778520e-01
01.30    2.63967019467158e-02    2.39841240569744e+00    1.59914949789865e-03    1.09659746154107e+00
01.31    2.71241271041021e-02    2.44038031625584e+00    1.27134297954390e-03    1.22847953580440e+00
01.32    2.82014758276890e-02    2.49198063417227e+00    1.03395175694623e-03    1.36424222186844e+00
01.33    2.95686297115663e-02    2.56074749867960e+00    8.80993690548873e-04    1.49604475660472e+00
01.34    3.11379095085416e-02    2.65180790241680e+00    8.02804409262422e-04    1.61645619365114e+00
01.35    3.28098890866304e-02    2.76621392929883e+00    7.87730044663608e-04    1.71930416920961e+00
01.36    3.44893667378446e-02    2.89973359712414e+00    8.23039352561550e-04    1.80019511505014e+00
01.37    3.60977376060038e-02    3.04241608225608e+00    8.95328737071392e-04    1.85663809003508e+00
01.38    3.75802060374225e-02    3.17913021459463e+00    9.90803001842730e-04    1.88783089185416e+00
01.39    3.89090541880399e-02    3.29110994208456e+00    1.09573976932174e-03    1.89426636908392e+00
01.40    4.00862507575928e-02    3.35835986659887e+00    1.19725953831575e-03    1.87735250111060e+00
01.41    4.11490362163608e-02    3.36261289511792e+00    1.28432219897117e-03    1.83919997206888e+00
01.42    4.21804468917460e-02    3.29041835238041e+00    1.34873685109543e-03    1.78263365294428e+00
01.43    4.33235053928718e-02    3.13588729707077e+00    1.38594391686539e-03    1.71137035417151e+00
01.44    4.47940747882975e-02    2.90263396638439e+00    1.39539295888315e-03    1.63022040776623e+00
01.45    4.68845671176773e-02    2.60452222778093e+00    1.38044466081385e-03    1.54514636564774e+00
01.46    4.99502802571150e-02    2.26494784990971e+00    1.34781287960013e-03    1.46305269405222e+00
01.47    5.43731170222833e-02    1.91456103962437e+00    1.30659929995603e-03    1.39126399808793e+00
01.48    6.05037122022086e-02    1.58756372871231e+00    1.26696875509217e-03    1.33674154379529e+00
01.49    6.85908871102368e-02    1.31699996934920e+00    1.23851426298549e-03    1.30515923065787e+00
01.50    7.87137812589950e-02    1.12976014183677e+00    1.22842215496335e-03    1.29999668013184e+00
01.51    9.07337150480668e-02    1.04225277920504e+00    1.23969320111856e-03    1.32181021064976e+00
01.52    1.04278215261891e-01    1.05773423833755e+00    1.26986122734661e-03    1.36782099696957e+00
01.53    1.18760190215183e-01    1.16601890486538e+00    1.31076763190481e-03    1.43192169147241e+00
01.54    1.33425409063629e-01    1.34572245467232e+00    1.34988382038260e-03    1.50515401176393e+00
01.55    1.47416250087438e-01    1.56848221130601e+00    1.37337265504803e-03    1.57665542747158e+00
01.56    1.59841417860415e-01    1.80403526039172e+00    1.37059283854721e-03    1.63501683087806e+00
01.57    1.69847613939465e-01    2.02487760382639e+00    1.33920583305103e-03    1.66993461070769e+00
01.58    1.76694205800520e-01    2.20955511929321e+00    1.28959871357864e-03    1.67397612569452e+00
01.59    1.79830737482843e-01    2.34428301088226e+00    1.24712735886169e-03    1.64420943671705e+00
01.60    1.78969570824464e-01    2.42323173257819e+00    1.25082949156976e-03    1.58339744643796e+00
01.61    1.74137697777190e-01    2.44815955155117e+00    1.34785037760615e-03    1.50046348608594e+00
01.62    1.65690369213484e-01    2.42800415405599e+00    1.58388850064306e-03    1.41003632152832e+00
01.63    1.54278139675728e-01    2.37867087483660e+00    1.99135656903858e-03    1.33107603472203e+00
01.64    1.40774398597167e-01    2.32279933835672e+00    2.57827326324712e-03    1.28481189392733e+00
01.65    1.26183538733543e-01    2.28897635680531e+00    3.32157999662806e-03    1.29239814854967e+00
01.66    1.11552884434075e-01    2.30982815564214e+00    4.16809744337389e-03    1.37273632223915e+00
01.67    9.79033200668048e-02    2.41870110917339e+00    5.04455358078730e-03    1.54080289215311e+00
01.68    8.61803564042124e-02    2.64515825882317e+00    5.87544500549437e-03    1.80660669724606e+00
01.69    7.72178813892638e-02    3.01011405216426e+00    6.60481366586867e-03    2.17467209489454e+00
01.70    7.17063556035352e-02    3.52186339052851e+00    7.21629944977221e-03    2.64379782195288e+00
01.71    7.01643163075797e-02    4.17429387811202e+00    7.74569881287438e-03    3.20684172290441e+00
01.72    7.29199425350144e-02    4.94808281089868e+00    8.28179950497352e-03    3.85043264485557e+00
01.73    8.01107657336413e-02    5.81477761063681e+00    8.95406297848996e-03    4.55474587519651e+00
01.74    9.17017462492339e-02    6.74267065056933e+00    9.90910566695685e-03    5.29367653527597e+00
01.75    1.07509256272805e-01    7.70272547706574e+00    1.12810784662318e-02    6.03578382301298e+00
01.76    1.27210139522942e-01    8.67278794492946e+00    1.31630906614441e-02    6.74620508139351e+00
01.77    1.50319019284250e-01    9.63893862499775e+00    1.55869777132510e-02    7.38941491847804e+00
01.78    1.76134368095646e-01    1.05938434011359e+01    1.85165851609533e-02    7.93238696029375e+00
01.79    2.03676472033445e-01    1.15329324874534e+01    2.18557267228385e-02    8.34756690174665e+00
01.80    2.31655153830877e-01    1.24498455469466e+01    2.54673244578796e-02    8.61515445548771e+00
01.81    2.58501705486485e-01    1.33326783573360e+01    2.91966687683698e-02    8.72445152290223e+00
01.82    2.82477686172351e-01    1.41622127890411e+01    3.28907354740462e-02    8.67430997764471e+00
01.83    3.01843857999010e-01    1.49126835130257e+01    3.64076650269938e-02    8.47286599446755e+00
01.84    3.15051084013596e-01    1.55549317172646e+01    3.96151887998695e-02    8.13673835263133e+00
01.85    3.20912206608074e-01    1.60611871854092e+01    4.23821779590543e-02    7.68976130031657e+00
01.86    3.18728956873234e-01    1.64103301632085e+01    4.45712472664212e-02    7.16122874279524e+00
01.87    3.08369209599428e-01    1.65923859173021e+01    4.60405411547055e-02    6.58362368341716e+00
01.88    2.90302912209208e-01    1.66112034089175e+01    4.66589520796648e-02    5.98990356511374e+00
01.89    2.65602334379863e-01    1.64846962646153e+01    4.63325006965483e-02    5.41056184819285e+00
01.90    2.35898590060612e-01    1.62425575799071e+01    4.50333848495207e-02    4.87082483301821e+00
01.91    2.03275149412428e-01    1.59218707113194e+01    4.28203677183257e-02    4.38841654587930e+00
01.92    1.70083073390948e-01    1.55614300848135e+01    3.98413200817823e-02    3.97229872704250e+00
01.93    1.38684894962032e-01    1.51958089020890e+01    3.63150236561646e-02    3.62265515173357e+00
01.94    1.11164822872664e-01    1.48502460880608e+01    3.24969138986273e-02    3.33215749065001e+00
01.95    8.90657016185428e-02    1.45372711200999e+01    2.86389113877172e-02    3.08827817164524e+00
