# RiF 1e-20 (cm^2/W)
# 1w(eV) RpP                     RpS                     RsP                     RsS
00.01    3.14267587870383e-10    1.64437658953097e-09    9.29739912650679e-10    8.73155710180985e-10
00.02    4.20426174930485e-10    2.20373118777369e-09    1.24594403211903e-09    1.17015395538980e-09
00.03    6.49855998652706e-10    3.41449451655925e-09    1.93036440960446e-09    1.81302012027962e-09
00.04    1.03662119984251e-09    5.46051026637563e-09    3.08686759976000e-09    2.89935057816744e-09
00.05    1.63141150706426e-09    8.61686208602633e-09    4.87084739484758e-09    4.57517159930769e-09
00.06    2.50105698580317e-09    1.32490527878334e-08    7.48873609613224e-09    7.03449610436573e-09
00.07    3.72790643794045e-09    1.98120209361663e-08    1.11974150826727e-08    1.05187916587179e-08
00.08    5.40911208579604e-09    2.88492043345275e-08    1.63036433505038e-08    1.53164709793975e-08
00.09    7.65587156815159e-09    4.09919029249326e-08    2.31636464744294e-08    2.17625390675202e-08
00.10    1.05926682092284e-08    5.69591452059116e-08    3.21829810808460e-08    3.02385053274285e-08
00.11    1.43565288558054e-08    7.75581450233618e-08    4.38167233563369e-08    4.11726067665066e-08
00.12    1.90962925224218e-08    1.03685311746062e-07    5.85699593047702e-08    5.50403225810869e-08
00.13    2.49718677578320e-08    1.36327691496081e-07    7.69985064070893e-08    7.23651151003609e-08
00.14    3.21534508966943e-08    1.76564699755059e-07    9.97097860207560e-08    9.37193228322513e-08
00.15    4.08206811524484e-08    2.25570032221611e-07    1.27363782525828e-07    1.19725145436305e-07
00.16    5.11617227473821e-08    2.84613695691468e-07    1.60674055909074e-07    1.51055689649574e-07
00.17    6.33722715199001e-08    3.55064145341995e-07    2.00408799055983e-07    1.88436068776431e-07
00.18    7.76544960931414e-08    4.38390546621011e-07    2.47391948237021e-07    2.32644565409896e-07
00.19    9.42159247708290e-08    5.36165191495187e-07    3.02504362273645e-07    2.84513873040985e-07
00.20    1.13268283729126e-07    6.50066100454774e-07    3.66685079025411e-07    3.44932433087159e-07
00.21    1.35026286652185e-07    7.81879825284987e-07    4.40932661589665e-07    4.14845875181692e-07
00.22    1.59706367026768e-07    9.33504466938139e-07    5.26306634421907e-07    4.95258567930312e-07
00.23    1.87525343470055e-07    1.10695290737460e-06    6.23929013384361e-07    5.87235279416229e-07
00.24    2.18699023413853e-07    1.30435626214670e-06    7.34985933030952e-07    6.91902950886405e-07
00.25    2.53440764171419e-07    1.52796756122959e-06    8.60729372598361e-07    8.10452587369932e-07
00.26    2.91960019557917e-07    1.78016567216369e-06    1.00247898950557e-06    9.44141272866325e-07
00.27    3.34460897608455e-07    2.06345948699167e-06    1.16162405910651e-06    1.09429432117054e-06
00.28    3.81140726330567e-07    2.38049238816856e-06    1.33962552197733e-06    1.26230757031671e-06
00.29    4.32188605941367e-07    2.73404700922907e-06    1.53801813945849e-06    1.44964982845118e-06
00.30    4.87783922735784e-07    3.12705030178914e-06    1.75841274461785e-06    1.65786547707398e-06
00.31    5.48094799878001e-07    3.56257891627413e-06    2.00249860412172e-06    1.88857723501998e-06
00.32    6.13276488795952e-07    4.04386491101263e-06    2.27204589151699e-06    2.14348909047989e-06
00.33    6.83469702911325e-07    4.57430180589390e-06    2.56890830179907e-06    2.42438940970634e-06
00.34    7.58798932265057e-07    5.15745100045749e-06    2.89502582374841e-06    2.73315423177953e-06
00.35    8.39370766864117e-07    5.79704859641876e-06    3.25242768610183e-06    3.07175077079469e-06
00.36    9.25272302687402e-07    6.49701266278632e-06    3.64323545699996e-06    3.44224114520818e-06
00.37    1.01656966950184e-06    7.26145099214066e-06    4.06966628437652e-06    3.84678636034624e-06
00.38    1.11330666182513e-06    8.09466936922875e-06    4.53403625602483e-06    4.28765055508570e-06
00.39    1.21550340555808e-06    9.00118036187064e-06    5.03876388760652e-06    4.76720551787164e-06
00.40    1.32315498088182e-06    9.98571260389402e-06    5.58637372799128e-06    5.28793545463433e-06
00.41    1.43622993476164e-06    1.10532205673450e-05    6.17950013157981e-06    5.85244200470569e-06
00.42    1.55466875831548e-06    1.22088948488467e-05    6.82089118214658e-06    6.46344951653358e-06
00.43    1.67838241164619e-06    1.34581730524858e-05    7.51341282315137e-06    7.12381062604446e-06
00.44    1.80725103757359e-06    1.48067514323505e-05    8.26005320887015e-06    7.83651222511840e-06
00.45    1.94112289235183e-06    1.62605973994709e-05    9.06392734805912e-06    8.60468187740903e-06
00.46    2.07981350967204e-06    1.78259629956106e-05    9.92828200252220e-06    9.43159473685331e-06
00.47    2.22310499474079e-06    1.95093993004346e-05    1.08565008506059e-05    1.03206809498322e-05
00.48    2.37074533968218e-06    2.13177717168092e-05    1.18521098404297e-05    1.12755335074142e-05
00.49    2.52244763684616e-06    2.32582760817636e-05    1.29187827105049e-05    1.22999165139058e-05
00.50    2.67788924723095e-06    2.53384556418386e-05    1.40603466419627e-05    1.33977738869990e-05
00.51    2.83671102898695e-06    2.75662190422186e-05    1.52807880583797e-05    1.45732385671238e-05
00.52    2.99851688387066e-06    2.99498595734037e-05    1.65842585829789e-05    1.58306423696409e-05
00.53    3.16287376323054e-06    3.24980758705724e-05    1.79750811982064e-05    1.71745265883707e-05
00.54    3.32931209312930e-06    3.52199941962408e-05    1.94577567143255e-05    1.86096534249012e-05
00.55    3.49732642264720e-06    3.81251924482735e-05    2.10369706700687e-05    2.01410183164332e-05
00.56    3.66637606873462e-06    4.12237256028432e-05    2.27176007316001e-05    2.17738630020818e-05
00.57    3.83588560734726e-06    4.45261530145450e-05    2.45047246039725e-05    2.35136895360191e-05
00.58    4.00524539629910e-06    4.80435671612387e-05    2.64036282679139e-05    2.53662750226937e-05
00.59    4.17381226880236e-06    5.17876243598149e-05    2.84198144163316e-05    2.73376873466910e-05
00.60    4.34091079412943e-06    5.57705776114439e-05    3.05590109327290e-05    2.94343019874113e-05
00.61    4.50583520385218e-06    6.00053121644997e-05    3.28271794124247e-05    3.16628202363852e-05
00.62    4.66785196565223e-06    6.45053840513595e-05    3.52305238236777e-05    3.40302889519979e-05
00.63    4.82620285993319e-06    6.92850619819827e-05    3.77754994880094e-05    3.65441220475773e-05
00.64    4.98010826569177e-06    7.43593723262244e-05    4.04688223434593e-05    3.92121235564444e-05
00.65    5.12877039383588e-06    7.97441472791823e-05    4.33174785609501e-05    4.20425123080612e-05
00.66    5.27137646556517e-06    8.54560757863290e-05    4.63287344489245e-05    4.50439479959520e-05
00.67    5.40710200717275e-06    9.15127576095777e-05    4.95101466594730e-05    4.82255588400859e-05
00.68    5.53511461386306e-06    9.79327609263278e-05    5.28695728885374e-05    5.15969710674786e-05
00.69    5.65457845807829e-06    1.04735684488127e-04    5.64151831199320e-05    5.51683407484626e-05
00.70    5.76465950363666e-06    1.11942225487476e-04    6.01554713378144e-05    5.89503885769429e-05
00.71    5.86453135817273e-06    1.19574254870273e-04    6.40992673436114e-05    6.29544384872984e-05
00.72    5.95338160828795e-06    1.27654901761104e-04    6.82557480206710e-05    6.71924609569523e-05
00.73    6.03041847219920e-06    1.36208646983153e-04    7.26344478229192e-05    7.16771209600484e-05
00.74    6.09487785438977e-06    1.45261424901823e-04    7.72452684731093e-05    7.64218301691992e-05
00.75    6.14603056849177e-06    1.54840730982161e-04    8.20984884068358e-05    8.14408020398027e-05
00.76    6.18318965916823e-06    1.64975734549723e-04    8.72047722241609e-05    8.67491095180509e-05
00.77    6.20571762848736e-06    1.75697397291762e-04    9.25751801081926e-05    9.23627456574018e-05
00.78    6.21303435213275e-06    1.87038602830192e-04    9.82211763378944e-05    9.82986899274551e-05
00.79    6.20462651535137e-06    1.99034302421915e-04    1.04154636175045e-04    1.04574982833450e-04
00.80    6.18005891619278e-06    2.11721679708006e-04    1.10387850845827e-04    1.11210810346175e-04
00.81    6.13898714061931e-06    2.25140334851305e-04    1.16933530609280e-04    1.18226598294443e-04
00.82    6.08116976659158e-06    2.39332485502269e-04    1.23804805745082e-04    1.25644115367725e-04
00.83    6.00647885418739e-06    2.54343184984974e-04    1.31015224158864e-04    1.33486584908376e-04
00.84    5.91490823731795e-06    2.70220562205804e-04    1.38578743696919e-04    1.41778807828995e-04
00.85    5.80658095061773e-06    2.87016091250093e-04    1.46509716818190e-04    1.50547300758159e-04
00.86    5.68175752391889e-06    3.04784897698721e-04    1.54822865943389e-04    1.59820453038461e-04
00.87    5.54084637757023e-06    3.23586105523634e-04    1.63533247838013e-04    1.69628704568751e-04
00.88    5.38441643234132e-06    3.43483226026002e-04    1.72656205214828e-04    1.80004745246187e-04
00.89    5.21321066274725e-06    3.64544590496153e-04    1.82207302256014e-04    1.90983736910971e-04
00.90    5.02815852908842e-06    3.86843832680773e-04    1.92202239792961e-04    2.02603560923640e-04
00.91    4.83038588044497e-06    4.10460434366654e-04    2.02656743901533e-04    2.14905098224362e-04
00.92    4.62122122063759e-06    4.35480349541363e-04    2.13586421893678e-04    2.27932549737246e-04
00.93    4.40219816746698e-06    4.61996725955336e-04    2.25006580065611e-04    2.41733806775961e-04
00.94    4.17505396260236e-06    4.90110740615492e-04    2.36931999317499e-04    2.56360879951673e-04
00.95    3.94172295561077e-06    5.19932566759040e-04    2.49376668388016e-04    2.71870395678338e-04
00.96    3.70432331179232e-06    5.51582495503588e-04    2.62353476183358e-04    2.88324172354038e-04
00.97    3.46513563416538e-06    5.85192250767307e-04    2.75873863273569e-04    3.05789896163357e-04
00.98    3.22657461733939e-06    6.20906555467658e-04    2.89947425669644e-04    3.24341926432449e-04
00.99    2.99115931829772e-06    6.58885006892188e-04    3.04581455584538e-04    3.44062260329077e-04
01.00    2.76149212261618e-06    6.99304257555065e-04    3.19780399108216e-04    3.65041654599176e-04
01.01    2.54025872591311e-06    7.42360329020380e-04    3.35545225606945e-04    3.87380814283901e-04
01.02    2.33026208752397e-06    7.88270621284642e-04    3.51872747362160e-04    4.11191420617936e-04
01.03    2.13450132293637e-06    8.37274897765280e-04    3.68755015394859e-04    4.36596623591313e-04
01.04    1.95630638858060e-06    8.89634435950785e-04    3.86179038181631e-04    4.63730578037536e-04
01.05    1.79954188194848e-06    9.45628909583185e-04    4.04127198354179e-04    4.92736798068806e-04
01.06    1.66890135202306e-06    1.00555160300931e-03    4.22578812904639e-04    5.23765642895101e-04
01.07    1.57032492957026e-06    1.06970518157370e-03    4.41513213403668e-04    5.56972090836068e-04
01.08    1.51158614242360e-06    1.13840187823843e-03    4.60914438623872e-04    5.92515807560701e-04
01.09    1.50311001861959e-06    1.21197258790545e-03    4.80777122749499e-04    6.30565840211834e-04
01.10    1.55911067040542e-06    1.29078777832191e-03    5.01112542478505e-04    6.71311444228701e-04
01.11    1.69919504381356e-06    1.37528868773113e-03    5.21953318388231e-04    7.14978242362986e-04
01.12    1.95069804576326e-06    1.46602058405598e-03    5.43355325075670e-04    7.61845440723966e-04
01.13    2.35221763048268e-06    1.56365315333617e-03    5.65396302993346e-04    8.12256351872661e-04
01.14    2.95909758145293e-06    1.66896993773810e-03    5.88172612008752e-04    8.66612853914128e-04
01.15    3.85189137075723e-06    1.78281255576870e-03    6.11798238919683e-04    9.25346406762786e-04
01.16    5.14898000205027e-06    1.90597785911332e-03    6.36412781604581e-04    9.88864700099650e-04
01.17    7.02428037320583e-06    2.03908529316069e-03    6.62206504111215e-04    1.05748291591856e-03
01.18    9.73009469179976e-06    2.18245204002480e-03    6.89469412552025e-04    1.13135909721804e-03
01.19    1.36233880708797e-05    2.33602705309993e-03    7.18666708821077e-04    1.21046008584968e-03
01.20    1.91910758116993e-05    2.49943429987640e-03    7.50534791862093e-04    1.29458402986750e-03
01.21    2.70665497098804e-05    2.67215633232268e-03    7.86181189567323e-04    1.38345547018024e-03
01.22    3.80265033618292e-05    2.85385336024662e-03    8.27160735829717e-04    1.47689038327566e-03
01.23    5.29555743960943e-05    3.04476815534403e-03    8.75492463841465e-04    1.57500536503158e-03
01.24    7.27683113695879e-05    3.24612569487106e-03    9.33581198773930e-04    1.67842378295516e-03
01.25    9.82852459583777e-05    3.46041206290833e-03    1.00401835339242e-03    1.78841922688319e-03
01.26    1.30073129028228e-04    3.69142060168345e-03    1.08925960129689e-03    1.90693852499475e-03
01.27    1.68277420385299e-04    3.94398913569136e-03    1.19121111466740e-03    2.03646523545011e-03
01.28    2.12494398369408e-04    4.22341657149958e-03    1.31079507689430e-03    2.17971790622540e-03
01.29    2.61745852461531e-04    4.53462816950302e-03    1.44760029073109e-03    2.33921919997257e-03
01.30    3.14626743625279e-04    4.88123837131518e-03    1.59974544115511e-03    2.51681293285341e-03
01.31    3.69693671067710e-04    5.26471845182834e-03    1.76408407588383e-03    2.71323596807295e-03
01.32    4.26151407426419e-04    5.68389671045401e-03    1.93685975915586e-03    2.92786214574197e-03
01.33    4.84880938060090e-04    6.13499199694300e-03    2.11488047713803e-03    3.15872123561028e-03
01.34    5.49840079530333e-04    6.61230730703129e-03    2.29722995910746e-03    3.40285747299371e-03
01.35    6.29857765305944e-04    7.10959928074583e-03    2.48747702298626e-03    3.65703497597745e-03
01.36    7.40831087095965e-04    7.62200985470697e-03    2.69628745441388e-03    3.91873066534775e-03
01.37    9.08311565052340e-04    8.14832093758773e-03    2.94428868270141e-03    4.18729102427022e-03
01.38    1.17042688014784e-03    8.69319513269348e-03    3.26498733611770e-03    4.46507913513616e-03
01.39    1.58102883489594e-03    9.26901570918911e-03    3.70749679022049e-03    4.75841338465531e-03
01.40    2.21290699057681e-03    9.89695038586549e-03    4.33880271601864e-03    5.07810570258079e-03
01.41    3.16090074322664e-03    1.06069406296189e-02    5.24529035725527e-03    5.43944739528240e-03
01.42    4.54484287877973e-03    1.14364534605666e-02    6.53329574687825e-03    5.86156054299857e-03
01.43    6.51253790849021e-03    1.24280070464995e-02    8.32854281417314e-03    6.36612255913301e-03
01.44    9.24344677815997e-03    1.36256654004190e-02    1.07745017283391e-02    6.97556581545913e-03
01.45    1.29543334286546e-02    1.50708582061007e-02    1.40299288143879e-02    7.71093624162845e-03
01.46    1.79085548332776e-02    1.67979922575561e-02    1.82660360929194e-02    8.58965075496340e-03
01.47    2.44304474069966e-02    1.88303748710106e-02    2.36637148465520e-02    9.62342007388020e-03
01.48    3.29247568509102e-02    2.11769887596274e-02    3.04107767142764e-02    1.08166121309379e-02
01.49    4.38978334780302e-02    2.38306918975764e-02    3.86981196471829e-02    1.21653473320498e-02
01.50    5.79725608326181e-02    2.67685155238636e-02    4.87121719918263e-02    1.36576661282015e-02
01.51    7.58840340013661e-02    2.99549016429017e-02    6.06194998877030e-02    1.52751934608720e-02
01.52    9.84404894645422e-02    3.33488506115319e-02    7.45392030392010e-02    1.69967888471561e-02
01.53    1.26437346345972e-01    3.69158040385036e-02    9.05010752584802e-02    1.88045957255706e-02
01.54    1.60524080789854e-01    4.06443158316351e-02    1.08393387815209e-01    2.06925105555445e-02
01.55    2.01043899536997e-01    4.45658556449853e-02    1.27913102334348e-01    2.26762251633065e-02
01.56    2.47890997464094e-01    4.87735024291388e-02    1.48541069646821e-01    2.48026858126236e-02
01.57    3.00453117384633e-01    5.34325003291507e-02    1.69571822632476e-01    2.71554053063512e-02
01.58    3.57720589974897e-01    5.87739918648626e-02    1.90228192031294e-01    2.98512333135823e-02
01.59    4.18639812973053e-01    6.50644002832623e-02    2.09882365687279e-01    3.30247879869696e-02
01.60    4.82765687258647e-01    7.25480190705048e-02    2.28387314172119e-01    3.67993396990169e-02
01.61    5.51226690978073e-01    8.13689104328733e-02    2.46500284891796e-01    4.12472705874684e-02
01.62    6.27962205533778e-01    9.14877160730277e-02    2.66359519371130e-01    4.63480393692147e-02
01.63    7.21119890368228e-01    1.02615283985779e-01    2.91958295677358e-01    5.19547514279215e-02
01.64    8.44397026141670e-01    1.14184398388139e-01    3.29541306590615e-01    5.77800919683327e-02
01.65    1.01796483211710e+00    1.25372796900017e-01    3.87818234382228e-01    6.34082458709244e-02
01.66    1.26844532510801e+00    1.35178457938755e-01    4.77842895339256e-01    6.83332275560678e-02
01.67    1.62727788299648e+00    1.42537208806052e-01    6.12352484560483e-01    7.20185027854025e-02
01.68    2.12683907502637e+00    1.46466609997567e-01    8.04337934555037e-01    7.39697127063668e-02
01.69    2.79403232490936e+00    1.46218057097275e-01    1.06469557367424e+00    7.38113260131655e-02
01.70    3.64187091504429e+00    1.41417461483588e-01    1.39907067376881e+00    7.13572985703075e-02
01.71    4.66076253140691e+00    1.32171725679538e-01    1.80445516703885e+00    6.66642893259959e-02
01.72    5.81233958221161e+00    1.19116356301546e-01    2.26660196883372e+00    6.00550853477296e-02
01.73    7.02903994340064e+00    1.03384674693293e-01    2.75956458234858e+00    5.21025005170568e-02
01.74    8.22156627566223e+00    8.64938825359280e-02    3.24834387805663e+00    4.35714816763746e-02
01.75    9.29379542442888e+00    7.01632605638175e-02    3.69463991325387e+00    3.53272337924880e-02
01.76    1.01615790195200e+01    5.60957337947437e-02    4.06439624351404e+00    2.82251826002731e-02
01.77    1.07697313388858e+01    4.57588910034952e-02    4.33484177216509e+00    2.30009897781838e-02
01.78    1.11016561821295e+01    4.01958835107120e-02    4.49868166388293e+00    2.01759235656905e-02
01.79    1.11786743841139e+01    3.98872964251694e-02    4.56409222970039e+00    1.99881239027993e-02
01.80    1.10499540038417e+01    4.46786475941850e-02    4.55075958465286e+00    2.23569994283171e-02
01.81    1.07771358744303e+01    5.37854126619240e-02    4.48357519960620e+00    2.68865629622147e-02
01.82    1.04188971596129e+01    6.58835654359471e-02    4.38614720906010e+00    3.29115346031228e-02
01.83    1.00196478033299e+01    7.92832599485965e-02    4.27590593458031e+00    3.95848627075740e-02
01.84    9.60426300519364e+00    9.21660566738249e-02    4.16166105957941e+00    4.59967298602193e-02
01.85    9.17851810984126e+00    1.02847757039464e-01    4.04355350680952e+00    5.13059993778844e-02
01.86    8.73357270010254e+00    1.10017958959874e-01    3.91480435926309e+00    5.48596624504215e-02
01.87    8.25256321956683e+00    1.12910041715985e-01    3.76454080744020e+00    5.62772278652519e-02
01.88    7.71768856250758e+00    1.11371643245110e-01    3.58108670764660e+00    5.54852359662924e-02
01.89    7.11660093307085e+00    1.05830005947828e-01    3.35521987652248e+00    5.26992554767337e-02
01.90    6.44718300986352e+00    9.71702962297416e-02    3.08291865270377e+00    4.83625611668166e-02
01.91    5.71995718686403e+00    8.65607962070477e-02    2.76710167712165e+00    4.30585280324658e-02
01.92    4.95765070281693e+00    7.52634873171790e-02    2.41794233741856e+00    3.74160159134515e-02
01.93    4.19198414356689e+00    6.44635347122744e-02    2.05160830560404e+00    3.20244470724874e-02
01.94    3.45849152310850e+00    5.51408157281726e-02    1.68770450219683e+00    2.73700503040704e-02
01.95    2.79083030006245e+00    4.79950520269910e-02    1.34612009147079e+00    2.37989337984640e-02
