# RiF 1e-20 (cm^2/W)
# 1w(eV) RpP                     RpS                     RsP                     RsS
00.01    7.26666366758290e-10    9.33297700619362e-10    5.43911052917062e-10    1.84421638802754e-10
00.02    9.74400921796722e-10    1.25076503844846e-09    7.28900691855354e-10    2.47146347396615e-10
00.03    1.51091104266371e-09    1.93794343076500e-09    1.12931156391375e-09    3.82914321896532e-10
00.04    2.41824586857546e-09    3.09916934684560e-09    1.80591547307110e-09    6.12331693738376e-10
00.05    3.81938873510487e-09    4.89055848321982e-09    2.84963479251663e-09    9.66227914746826e-10
00.06    5.87814561234877e-09    7.51953753111138e-09    4.38125918541120e-09    1.48555980242159e-09
00.07    8.79904313245524e-09    1.12442828720111e-08    6.55110427406679e-09    2.22129607811475e-09
00.08    1.28273281326886e-08    1.63731851329240e-08    9.53868167083340e-09    3.23430590897359e-09
00.09    1.82491797210099e-08    2.32644829087615e-08    1.35524637119441e-08    4.59527978552259e-09
00.10    2.53922232594712e-08    3.23261814900349e-08    1.88298102318519e-08    6.38470561684480e-09
00.11    3.46263829309262e-08    4.40163058723964e-08    2.56370857843561e-08    8.69290976943917e-09
00.12    4.63650565669300e-08    5.88434670217048e-08    3.42699543040696e-08    1.16201588705729e-08
00.13    6.10665588399158e-08    7.73676719410751e-08    4.50538100837389e-08    1.52768086195783e-08
00.14    7.92357750132055e-08    1.00201298237360e-07    5.83442979110561e-08    1.97834838972419e-08
00.15    1.01425984720879e-07    1.28010168953173e-07    7.45278849662254e-08    2.52712774322983e-08
00.16    1.28240831545020e-07    1.61514694552866e-07    9.40224650463154e-08    3.18819604576966e-08
00.17    1.60336434831180e-07    2.01491074317003e-07    1.17277990048144e-07    3.97682037542684e-08
00.18    1.98423640097903e-07    2.48772567335714e-07    1.44777133765117e-07    4.90938110983822e-08
00.19    2.43270410795688e-07    3.04250849952877e-07    1.77035997107836e-07    6.00339683786205e-08
00.20    2.95704373519052e-07    3.68877477450133e-07    2.14604859846685e-07    7.27755118331735e-08
00.21    3.56615542827328e-07    4.43665458434472e-07    2.58068986188739e-07    8.75172170225784e-08
00.22    4.26959255229139e-07    5.29690950173224e-07    3.08049484308288e-07    1.04470109981200e-07
00.23    5.07759351188260e-07    6.28095074107450e-07    3.65204222280725e-07    1.23857800342969e-07
00.24    6.00111600499401e-07    7.40085855230238e-07    4.30228802484993e-07    1.45916837096085e-07
00.25    7.05187339162199e-07    8.66940289519026e-07    5.03857595418851e-07    1.70897087688722e-07
00.26    8.24237272327095e-07    1.01000654704179e-06    5.86864838283979e-07    1.99062142072512e-07
00.27    9.58595398691597e-07    1.17070632295951e-06    6.80065797639942e-07    2.30689743944219e-07
00.28    1.10968308727206e-06    1.35053734486986e-06    7.84317996996725e-07    2.66072250821348e-07
00.29    1.27901336770210e-06    1.55107604548904e-06    9.00522509835186e-07    3.05517124468758e-07
00.30    1.46819550606405e-06    1.77398040704393e-06    1.02962531069201e-06    3.49347452842564e-07
00.31    1.67893993645140e-06    2.02099298139835e-06    1.17261869357999e-06    3.97902504094126e-07
00.32    1.91306354726093e-06    2.29394409433274e-06    1.33054275803436e-06    4.51538314082935e-07
00.33    2.17249534692237e-06    2.59475524262205e-06    1.50448698061446e-06    5.10628309131690e-07
00.34    2.45928243889140e-06    2.92544269589096e-06    1.69559188125223e-06    5.75563965851619e-07
00.35    2.77559627814322e-06    3.28812132533266e-06    1.90505079420851e-06    6.46755512463277e-07
00.36    3.12373908523778e-06    3.68500868061755e-06    2.13411173186157e-06    7.24632675590708e-07
00.37    3.50615035014670e-06    4.11842934168158e-06    2.38407933459221e-06    8.09645477907991e-07
00.38    3.92541350559970e-06    4.59081955679634e-06    2.65631689470422e-06    9.02265088794885e-07
00.39    4.38426292939576e-06    5.10473217204045e-06    2.95224845957345e-06    1.00298472895428e-06
00.40    4.88559145537351e-06    5.66284183534938e-06    3.27336100777682e-06    1.11232062504779e-06
00.41    5.43245854787293e-06    6.26795047498132e-06    3.62120672679588e-06    1.23081301319776e-06
00.42    6.02809898239789e-06    6.92299306637115e-06    3.99740538348754e-06    1.35902719347519e-06
00.43    6.67593189628587e-06    7.63104373394841e-06    4.40364681972135e-06    1.49755464417417e-06
00.44    7.37956993529350e-06    8.39532227859687e-06    4.84169358249296e-06    1.64701421419305e-06
00.45    8.14282853023648e-06    9.21920118775253e-06    5.31338373175193e-06    1.80805340554211e-06
00.46    8.96973530863567e-06    1.01062131845423e-05    5.82063380465718e-06    1.98134975757209e-06
00.47    9.86453990487892e-06    1.10600592966827e-05    6.36544194250191e-06    2.16761232854377e-06
00.48    1.08317244171162e-05    1.20846174163087e-05    6.94989113526977e-06    2.36758326689890e-06
00.49    1.18760147814752e-05    1.31839513238681e-05    7.57615256979429e-06    2.58203946420849e-06
00.50    1.30023928558844e-05    1.43623202003856e-05    8.24648905977581e-06    2.81179429218105e-06
00.51    1.42161089979201e-05    1.56241887115355e-05    8.96325856789474e-06    3.05769943944730e-06
00.52    1.55226945661972e-05    1.69742377947735e-05    9.72891782913152e-06    3.32064687602092e-06
00.53    1.69279741338731e-05    1.84173762538597e-05    1.05460261045656e-05    3.60157096832940e-06
00.54    1.84380776787833e-05    1.99587532293923e-05    1.14172491304930e-05    3.90145076074916e-06
00.55    2.00594533255918e-05    2.16037716266760e-05    1.23453633346192e-05    4.22131243850637e-06
00.56    2.17988811752934e-05    2.33581023418095e-05    1.33332603557019e-05    4.56223193780908e-06
00.57    2.36634885607767e-05    2.52276995331416e-05    1.43839518719273e-05    4.92533774478474e-06
00.58    2.56607659935713e-05    2.72188167063243e-05    1.55005746279578e-05    5.31181383479601e-06
00.59    2.77985836764220e-05    2.93380239079495e-05    1.66863955892575e-05    5.72290280731674e-06
00.60    3.00852071739139e-05    3.15922261072526e-05    1.79448171360394e-05    6.15990923488441e-06
00.61    3.25293122310770e-05    3.39886830888257e-05    1.92793823018580e-05    6.62420329253199e-06
00.62    3.51399989260267e-05    3.65350310008873e-05    2.06937801136055e-05    7.11722469572392e-06
00.63    3.79268051328693e-05    3.92393057764517e-05    2.21918511379997e-05    7.64048698640832e-06
00.64    4.08997204343366e-05    4.21099682926131e-05    2.37775932040604e-05    8.19558213408258e-06
00.65    4.40692010749971e-05    4.51559313166968e-05    2.54551673473284e-05    8.78418545426996e-06
00.66    4.74461862676745e-05    4.83865879944885e-05    2.72289039392441e-05    9.40806079858459e-06
00.67    5.10421152416098e-05    5.18118420790486e-05    2.91033090188197e-05    1.00690660558733e-05
00.68    5.48689437323975e-05    5.54421400960278e-05    3.10830709520255e-05    1.07691590104454e-05
00.69    5.89391584229445e-05    5.92885060270451e-05    3.31730674465248e-05    1.15104036688475e-05
00.70    6.32657897058101e-05    6.33625791756524e-05    3.53783728692082e-05    1.22949771766427e-05
00.71    6.78624221802285e-05    6.76766562142916e-05    3.77042656439845e-05    1.31251775087863e-05
00.72    7.27432037244386e-05    7.22437383965054e-05    4.01562353195471e-05    1.40034321113962e-05
00.73    7.79228529121731e-05    7.70775839200611e-05    4.27399891794517e-05    1.49323074808361e-05
00.74    8.34166639413567e-05    8.21927649642967e-05    4.54614584069674e-05    1.59145195890959e-05
00.75    8.92405099712914e-05    8.76047278551263e-05    4.83268041588015e-05    1.69529448596291e-05
00.76    9.54108448053535e-05    9.33298560069347e-05    5.13424237332423e-05    1.80506316302899e-05
00.77    1.01944703844714e-04    9.93855359014995e-05    5.45149568302553e-05    1.92108121550021e-05
00.78    1.08859697649086e-04    1.05790229193309e-04    5.78512913390896e-05    2.04369157329088e-05
00.79    1.16173990200496e-04    1.12563553890813e-04    6.13585681721005e-05    2.17325835173179e-05
00.80    1.23906258461319e-04    1.19726376333943e-04    6.50441849350810e-05    2.31016853207433e-05
00.81    1.32075633473845e-04    1.27300914135069e-04    6.89157984378746e-05    2.45483384365730e-05
00.82    1.40701636955632e-04    1.35310848515129e-04    7.29813260094536e-05    2.60769281715450e-05
00.83    1.49804119820938e-04    1.43781446171277e-04    7.72489448912694e-05    2.76921301035439e-05
00.84    1.59403205633802e-04    1.52739693149579e-04    8.17270886129466e-05    2.93989345289102e-05
00.85    1.69519221080659e-04    1.62214445308689e-04    8.64244389026762e-05    3.12026739476967e-05
00.86    1.80172592124934e-04    1.72236599414941e-04    9.13499120836887e-05    3.31090543351506e-05
00.87    1.91383684152515e-04    1.82839287036935e-04    9.65126389656179e-05    3.51241906023101e-05
00.88    2.03172572308645e-04    1.94058091950340e-04    1.01921937190419e-04    3.72546463775096e-05
00.89    2.15558741564217e-04    2.05931291770798e-04    1.07587274170035e-04    3.95074782576666e-05
00.90    2.28560725586395e-04    2.18500127084513e-04    1.13518218151457e-04    4.18902851308619e-05
00.91    2.42195681806351e-04    2.31809105601934e-04    1.19724373663995e-04    4.44112639586597e-05
00.92    2.56478899081250e-04    2.45906350227690e-04    1.26215297646598e-04    4.70792736177128e-05
00.93    2.71423221302721e-04    2.60844001907753e-04    1.33000392708020e-04    4.99039087916940e-05
00.94    2.87038373426606e-04    2.76678686693976e-04    1.40088775055239e-04    5.28955856535679e-05
00.95    3.03330196060609e-04    2.93472056717410e-04    1.47489116930652e-04    5.60656411543262e-05
00.96    3.20299811088071e-04    3.11291417650447e-04    1.55209464566146e-04    5.94264483002557e-05
00.97    3.37942742781134e-04    3.30210463835282e-04    1.63257031876874e-04    6.29915513598851e-05
00.98    3.56247994234775e-04    3.50310153404599e-04    1.71637965862973e-04    6.67758269970131e-05
00.99    3.75197027952048e-04    3.71679755894689e-04    1.80357074542735e-04    7.07956773240904e-05
01.00    3.94762562730437e-04    3.94418070562627e-04    1.89417505159949e-04    7.50692543646644e-05
01.01    4.14907143976408e-04    4.18634718356679e-04    1.98820369286685e-04    7.96166974564391e-05
01.02    4.35581580183812e-04    4.44451261396196e-04    2.08564337376639e-04    8.44603369892025e-05
01.03    4.56723633019921e-04    4.72001744310545e-04    2.18645277565780e-04    8.96247878617440e-05
01.04    4.78257698962756e-04    5.01432201343670e-04    2.29056085453418e-04    9.51368466014874e-05
01.05    5.00096541467477e-04    5.32898884731737e-04    2.39786928315543e-04    1.01025146264644e-04
01.06    5.22146185401833e-04    5.66565552665857e-04    2.50826169491640e-04    1.07319633285482e-04
01.07    5.44314683903962e-04    6.02601068562106e-04    2.62162198211719e-04    1.14051102684785e-04
01.08    5.66524490084943e-04    6.41179483725164e-04    2.73786221534148e-04    1.21251200996887e-04
01.09    5.88726717845780e-04    6.82485129752259e-04    2.85695772130518e-04    1.28953371942183e-04
01.10    6.10914156565674e-04    7.26724354716651e-04    2.97898316486916e-04    1.37195050624513e-04
01.11    6.33129228707464e-04    7.74143039394589e-04    3.10414068515442e-04    1.46020941015613e-04
01.12    6.55464010463164e-04    8.25045264137144e-04    3.23277147768674e-04    1.55486503939139e-04
01.13    6.78052515064889e-04    8.79804728308880e-04    3.36534779890258e-04    1.65660077301677e-04
01.14    7.01060485592753e-04    9.38858761709194e-04    3.50245397880866e-04    1.76621724671341e-04
01.15    7.24683860964088e-04    1.00267691953569e-03    3.64478099321896e-04    1.88457318847046e-04
01.16    7.49171777179471e-04    1.07170314268427e-03    3.79317478361086e-04    2.01247683561152e-04
01.17    7.74890998103823e-04    1.14628120751442e-03    3.94878680129657e-04    2.15054630219946e-04
01.18    8.02443693543181e-04    1.22658459214045e-03    4.11336853984330e-04    2.29907854629285e-04
01.19    8.32838382620320e-04    1.31257946409943e-03    4.28972448341571e-04    2.45798060021188e-04
01.20    8.67695150351834e-04    1.40404901532265e-03    4.48228898818357e-04    2.62681559745156e-04
01.21    9.09443754509606e-04    1.50069655500412e-03    4.69772798565136e-04    2.80499568532157e-04
01.22    9.61452070957083e-04    1.60232456657174e-03    4.94539985306536e-04    2.99211604254202e-04
01.23    1.02800958785873e-03    1.70906176333773e-03    5.23746230675225e-04    3.18837729480208e-04
01.24    1.11409453168370e-03    1.82158697050918e-03    5.58840855764307e-04    3.39500062943226e-04
01.25    1.22488067233915e-03    1.94128505015936e-03    6.01387828973164e-04    3.61451505180447e-04
01.26    1.36499386923926e-03    2.07027213318556e-03    6.52872742312628e-04    3.85080066623951e-04
01.27    1.53760462730890e-03    2.21124761601055e-03    7.14454460898418e-04    4.10881002020861e-04
01.28    1.74352813521299e-03    2.36716660223219e-03    7.86703733619183e-04    4.39395724603834e-04
01.29    1.98057760255677e-03    2.54077187915255e-03    8.69392306533537e-04    4.71124903519337e-04
01.30    2.24345880599551e-03    2.73406904773603e-03    9.61409415080778e-04    5.06431358370010e-04
01.31    2.52448902555199e-03    2.94786097537101e-03    1.06088379842482e-03    5.45454299627310e-04
01.32    2.81536930933931e-03    3.18146896298910e-03    1.16557740046581e-03    5.88058408885783e-04
01.33    3.11014573995902e-03    3.43275268149899e-03    1.27359364045743e-03    6.33838272824429e-04
01.34    3.40938139036612e-03    3.69849923107914e-03    1.38441253218876e-03    6.82190854976884e-04
01.35    3.72544250502018e-03    3.97518944842738e-03    1.50023109151478e-03    7.32457128804513e-04
01.36    4.08868872163616e-03    4.26007706021576e-03    1.62755341904466e-03    7.84120623444748e-04
01.37    4.55424504331224e-03    4.55244629553620e-03    1.77894198757981e-03    8.37037832255203e-04
01.38    5.20891607461820e-03    4.85485918052778e-03    1.97481101970299e-03    8.91665603554322e-04
01.39    6.17768207270059e-03    5.17417636219121e-03    2.24511631041473e-03    9.49245845547413e-04
01.40    7.62911665406809e-03    5.52214221573202e-03    2.63077750812105e-03    1.01190942711035e-03
01.41    9.77904919436470e-03    5.91536865806000e-03    3.18466539710137e-03    1.08266942846398e-03
01.42    1.28919724807680e-02    6.37462809829095e-03    3.97200925339774e-03    1.16528803757028e-03
01.43    1.72802012442784e-02    6.92346353869127e-03    5.07013930857309e-03    1.26401935498918e-03
01.44    2.33017230931472e-02    7.58622654554014e-03    6.56758472613071e-03    1.38324913376282e-03
01.45    3.13589847267108e-02    8.38574315748646e-03    8.56268513238682e-03    1.52706864986510e-03
01.46    4.19021248190574e-02    9.34086876244377e-03    1.11619893097529e-02    1.69883074753287e-03
01.47    5.54405655476293e-02    1.04642220149104e-02    1.44787008142644e-02    1.90074101105503e-03
01.48    7.25652498939638e-02    1.17603971004178e-02    1.86311470376149e-02    2.13353820478813e-03
01.49    9.39791658366147e-02    1.32249706067049e-02    2.37405959683197e-02    2.39632061075469e-03
01.50    1.20526078180549e-01    1.48446721641964e-02    2.99267775494723e-02    2.68658377293069e-03
01.51    1.53198453490606e-01    1.65991785961994e-02    3.72985376441314e-02    3.00055081017202e-03
01.52    1.93099671835480e-01    1.84650605898764e-02    4.59368540165028e-02    3.33388825984641e-03
01.53    2.41338757362076e-01    2.04223292127435e-02    5.58688555928208e-02    3.68288522320173e-03
01.54    2.98853084066666e-01    2.24636028870763e-02    6.70351082714949e-02    4.04609678701678e-03
01.55    3.66186421703324e-01    2.46049741911290e-02    7.92580229034874e-02    4.42628440926791e-03
01.56    4.43290528451945e-01    2.68962358484568e-02    9.22254418084953e-02    4.83223313094621e-03
01.57    5.29457999504430e-01    2.94266044877727e-02    1.05508114791272e-01    5.27975623435720e-03
01.58    6.23520223740600e-01    3.23211938253205e-02    1.18630502981630e-01    5.79104357431273e-03
01.59    7.24445754095172e-01    3.57241661206183e-02    1.31209204323901e-01    6.39163543873761e-03
01.60    8.32446241936727e-01    3.97673342365689e-02    1.43162116186095e-01    7.10481505371250e-03
01.61    9.50645048094387e-01    4.45277028921649e-02    1.54976995887755e-01    7.94405491681308e-03
01.62    1.08729184446680e+00    4.99826082039912e-02    1.68014347211481e-01    8.90506994306695e-03
01.63    1.25839471441619e+00    5.59744237469346e-02    1.84808021410928e-01    9.95961094508520e-03
01.64    1.49044282401138e+00    6.21962263204991e-02    2.09314573204048e-01    1.10530170625437e-02
01.65    1.82257100878985e+00    6.82051437100995e-02    2.47043985805508e-01    1.21067016278211e-02
01.66    2.30709803037217e+00    7.34633581606558e-02    3.04976502150808e-01    1.30255359320274e-02
01.67    3.00699217895818e+00    7.74009818105729e-02    3.91137946048485e-01    1.37090685212507e-02
01.68    3.98876767226547e+00    7.94921911139821e-02    5.13691841623560e-01    1.40650200670998e-02
01.69    5.30998165969442e+00    7.93354805788234e-02    6.79455858571352e-01    1.40234144055358e-02
01.70    7.00217392276904e+00    7.67283561712174e-02    8.91912599493504e-01    1.35496320615052e-02
01.71    9.05260990605030e+00    7.17249085177992e-02    1.14906825818971e+00    1.26543637966411e-02
01.72    1.13906496025123e+01    6.46630675289504e-02    1.44182835636097e+00    1.13981725315231e-02
01.73    1.38854472954885e+01    5.61503759231498e-02    1.75371658418952e+00    9.88874393287880e-03
01.74    1.63596121091868e+01    4.70046994586091e-02    2.06255752318971e+00    8.27024612776387e-03
01.75    1.86183172895348e+01    3.81572183070999e-02    2.34412172849542e+00    6.70613881222244e-03
01.76    2.04869586914522e+01    3.05341785300350e-02    2.57690133387039e+00    5.35836701013534e-03
01.77    2.18459797521132e+01    2.49370961056748e-02    2.74656166376309e+00    4.36642002321350e-03
01.78    2.26515804648200e+01    2.19384216766190e-02    2.84858146870377e+00    3.82923876213517e-03
01.79    2.29360798080606e+01    2.18047011959201e-02    2.88823258115859e+00    3.79205292681705e-03
01.80    2.27893172798447e+01    2.44556494793350e-02    2.87805614953170e+00    4.23956784066062e-03
01.81    2.23289297935971e+01    2.94658670821900e-02    2.83386260541702e+00    5.09660605343326e-03
01.82    2.16698208072101e+01    3.61136523844751e-02    2.77062530101625e+00    6.23690432772326e-03
01.83    2.09012620961252e+01    4.34756272356030e-02    2.69939238730870e+00    7.49977526834650e-03
01.84    2.00756538284252e+01    5.05564555760220e-02    2.62575465573257e+00    8.71272154229081e-03
01.85    1.92085552678728e+01    5.64328880519610e-02    2.54982705471718e+00    9.71637639344667e-03
01.86    1.82869094757960e+01    6.03853361876229e-02    2.46736088954474e+00    1.03871345963272e-02
01.87    1.72816978134079e+01    6.19915454078449e-02    2.37152931166589e+00    1.06531097746505e-02
01.88    1.61617969395226e+01    6.11658417367056e-02    2.25499977057484e+00    1.05006214557740e-02
01.89    1.49065968544021e+01    5.81407219273804e-02    2.11198155454471e+00    9.97072465358234e-03
01.90    1.35154613677159e+01    5.34005760567161e-02    1.93995026299521e+00    9.14753726355862e-03
01.91    1.20124675968620e+01    4.75860429485111e-02    1.74073912487544e+00    8.14160332403607e-03
01.92    1.04454585195060e+01    4.13901037459196e-02    1.52073513990094e+00    7.07195052690806e-03
01.93    8.87956647460420e+00    3.54643343904618e-02    1.29008658654379e+00    6.05000798770331e-03
01.94    7.38686786032046e+00    3.03480923451204e-02    1.06109717674176e+00    5.16755385425165e-03
01.95    6.03513132339787e+00    2.64270701747989e-02    8.46247461959771e-01    4.48975646313179e-03
