# RiF 1e-20 (cm^2/W)
# 1w(eV) RpP                     RpS                     RsP                     RsS
00.01    1.29286101439277e-07    5.86682718225319e-09    2.86082098968400e-12    1.21340800411557e-09
00.02    1.73196282505783e-07    7.86311158105878e-09    3.83450120439714e-12    1.62622572422876e-09
00.03    2.68210501251987e-07    1.21845061087587e-08    5.94235209799314e-12    2.51982858925711e-09
00.04    4.28685536437754e-07    1.94878098698878e-08    9.50496971658796e-12    4.02996528392980e-09
00.05    6.76077699934665e-07    3.07560172723721e-08    1.50022503391381e-11    6.35977829592871e-09
00.06    1.03884816601335e-06    4.72956639457009e-08    2.30721856844365e-11    9.77922557392140e-09
00.07    1.55234570887467e-06    7.07336833900020e-08    3.45094461780918e-11    1.46243914168643e-08
00.08    2.25868345604035e-06    1.03014523313192e-07    5.02641126873253e-11    2.12968415802847e-08
00.09    3.20662962335154e-06    1.46398426534509e-07    7.14409930106236e-11    3.02632098154466e-08
00.10    4.45152827836382e-06    2.03461607029957e-07    9.92998736535828e-11    4.20551668260054e-08
00.11    6.05525669069966e-06    2.77098636452230e-07    1.35256854952167e-10    5.72698367621812e-08
00.12    8.08621621741683e-06    3.70526909048175e-07    1.80886697608873e-10    7.65706335439031e-08
00.13    1.06193467825763e-05    4.87292751180735e-07    2.37925968275538e-10    1.00688427066200e-07
00.14    1.37361537473835e-05    6.31278676824631e-07    3.08276736338140e-10    1.30422935698656e-07
00.15    1.75247380703921e-05    8.06711403252841e-07    3.94010620957689e-10    1.66644264818362e-07
00.16    2.20798250595263e-05    1.01817043086378e-06    4.97373086982291e-10    2.10294550615780e-07
00.17    2.75027900871546e-05    1.27059716658477e-06    6.20787953341673e-10    2.62389704300584e-07
00.18    3.39016823249741e-05    1.56930466005776e-06    7.66862134216293e-10    3.24021270768401e-07
00.19    4.13912480489364e-05    1.91998806314274e-06    9.38390648870279e-10    3.96358424018625e-07
00.20    5.00929555670214e-05    2.32873590072539e-06    1.13836194220748e-09    4.80650116991332e-07
00.21    6.01350226052579e-05    2.80204222856001e-06    1.36996353476595e-09    5.78227400345264e-07
00.22    7.16524465429871e-05    3.34681974402664e-06    1.63658802507622e-09    6.90505923162919e-07
00.23    8.47870372126889e-05    3.97041391310265e-06    1.94183945146967e-09    8.18988627031714e-07
00.24    9.96874519517597e-05    4.68061817687483e-06    2.28954001501826e-09    9.65268645779928e-07
00.25    1.16509233074911e-04    5.48569031127960e-06    2.68373715930309e-09    1.13103242558318e-06
00.26    1.35414848447148e-04    6.39436997479261e-06    3.12871098815504e-09    1.31806307166250e-06
00.27    1.56573736062196e-04    7.41589748858727e-06    3.62898200258702e-09    1.52824393112758e-06
00.28    1.80162352119435e-04    8.56003389409301e-06    4.18931911300194e-09    1.76356241925954e-06
00.29    2.06364221192567e-04    9.83708235700026e-06    4.81474800367762e-09    2.02611410241202e-06
00.30    2.35369987072909e-04    1.12579110301099e-05    5.51055974373323e-09    2.31810705745100e-06
00.31    2.67377466241181e-04    1.28339775313429e-05    6.28231979938836e-09    2.64186653859498e-06
00.32    3.02591706361815e-04    1.45773552261533e-05    7.13587739670990e-09    2.99983998776509e-06
00.33    3.41225053514606e-04    1.65007614324410e-05    8.07737521287578e-09    3.39460241311802e-06
00.34    3.83497228607068e-04    1.86175876438024e-05    9.11325941487329e-09    3.82886215298314e-06
00.35    4.29635409409703e-04    2.09419318510858e-05    1.02502900136451e-08    4.30546704044057e-06
00.36    4.79874312058607e-04    2.34886329284033e-05    1.14955513619328e-08    4.82741095726640e-06
00.37    5.34456270661326e-04    2.62733072451747e-05    1.28564629237982e-08    5.39784080927248e-06
00.38    5.93631315491099e-04    2.93123876631540e-05    1.43407901067460e-08    6.02006395302422e-06
00.39    6.57657259788668e-04    3.26231653273376e-05    1.59566552276398e-08    6.69755615901769e-06
00.40    7.26799796317639e-04    3.62238345393510e-05    1.77125486359177e-08    7.43397016635099e-06
00.41    8.01332611861984e-04    4.01335411956531e-05    1.96173397630886e-08    8.23314492452841e-06
00.42    8.81537513588481e-04    4.43724348898070e-05    2.16802883540810e-08    9.09911553224333e-06
00.43    9.67704566181150e-04    4.89617248027960e-05    2.39110555328294e-08    1.00361238906683e-05
00.44    1.06013223433680e-03    5.39237395887318e-05    2.63197148505634e-08    1.10486301117900e-05
00.45    1.15912752476507e-03    5.92819910580139e-05    2.89167632233116e-08    1.21413246394044e-05
00.46    1.26500613296214e-03    6.50612424033096e-05    3.17131314230374e-08    1.33191412376733e-05
00.47    1.37809258835059e-03    7.12875814548123e-05    3.47201942755410e-08    1.45872709376529e-05
00.48    1.49872041440716e-03    7.79884996104582e-05    3.79497800828458e-08    1.59511770702983e-05
00.49    1.62723230005130e-03    8.51929773163507e-05    4.14141793010097e-08    1.74166115502081e-05
00.50    1.76398028978276e-03    9.29315767410861e-05    4.51261519541582e-08    1.89896325365269e-05
00.51    1.90932600016728e-03    1.01236542292246e-04    4.90989335888382e-08    2.06766235912086e-05
00.52    2.06364086136144e-03    1.10141909569732e-04    5.33462391562180e-08    2.24843144540724e-05
00.53    2.22730639465520e-03    1.19683623439966e-04    5.78822645033351e-08    2.44198035547482e-05
00.54    2.40071450891347e-03    1.29899664601255e-04    6.27216859590446e-08    2.64905821274753e-05
00.55    2.58426781055375e-03    1.40830185732615e-04    6.78796570784420e-08    2.87045601356520e-05
00.56    2.77837989453752e-03    1.52517656212963e-04    7.33718024154275e-08    3.10700937847393e-05
00.57    2.98347562423249e-03    1.65007018334379e-04    7.92142075702852e-08    3.35960152102468e-05
00.58    3.19999141928188e-03    1.78345857385523e-04    8.54234039034550e-08    3.62916648159923e-05
00.59    3.42837559674012e-03    1.92584589759445e-04    9.20163476223106e-08    3.91669270988508e-05
00.60    3.66908880295812e-03    2.07776673080632e-04    9.90103916812105e-08    4.22322707576053e-05
00.61    3.92260453019757e-03    2.23978838194149e-04    1.06423248404880e-07    4.54987930205371e-05
00.62    4.18940969254696e-03    2.41251343644578e-04    1.14272940363668e-07    4.89782682604648e-05
00.63    4.47000521455907e-03    2.59658250335849e-04    1.22577736652872e-07    5.26832003815431e-05
00.64    4.76490660195555e-03    2.79267718336817e-04    1.31356073187952e-07    5.66268793180161e-05
00.65    5.07464448849739e-03    3.00152329025071e-04    1.40626455778195e-07    6.08234422967894e-05
00.66    5.39976519510696e-03    3.22389439323504e-04    1.50407343650952e-07    6.52879412044035e-05
00.67    5.74083134318808e-03    3.46061574330803e-04    1.60717008813588e-07    7.00364173474271e-05
00.68    6.09842258519499e-03    3.71256864615511e-04    1.71573361531720e-07    7.50859848362511e-05
00.69    6.47313648730200e-03    3.98069534127079e-04    1.82993730858449e-07    8.04549237438156e-05
00.70    6.86558958344009e-03    4.26600446620365e-04    1.94994588052200e-07    8.61627845405038e-05
00.71    7.27641859016068e-03    4.56957722673949e-04    2.07591199911732e-07    9.22305061127056e-05
00.72    7.70628177404776e-03    4.89257439605420e-04    2.20797198443361e-07    9.86805497288345e-05
00.73    8.15586043556723e-03    5.23624426520304e-04    2.34624048516381e-07    1.05537051270925e-04
00.74    8.62586051190813e-03    5.60193166947111e-04    2.49080386800273e-07    1.12825994058024e-04
00.75    9.11701427290606e-03    5.99108820887253e-04    2.64171202865570e-07    1.20575404631148e-04
00.76    9.63008213891392e-03    6.40528384277088e-04    2.79896830992076e-07    1.28815574808502e-04
00.77    1.01658546162783e-02    6.84622005196819e-04    2.96251733590548e-07    1.37579313945493e-04
00.78    1.07251543615993e-02    7.31574482769934e-04    3.13223068419106e-07    1.46902236205228e-04
00.79    1.13088383323097e-02    7.81586983335165e-04    3.30789046946004e-07    1.56823089692139e-04
00.80    1.19178000142624e-02    8.34879029192557e-04    3.48917094703870e-07    1.67384137909639e-04
00.81    1.25529718780460e-02    8.91690850506447e-04    3.67561819415687e-07    1.78631611384870e-04
00.82    1.32153284278230e-02    9.52286222705717e-04    3.86662796354284e-07    1.90616253538460e-04
00.83    1.39058904376869e-02    1.01695589211558e-03    4.06142218033075e-07    2.03393980915394e-04
00.84    1.46257307773150e-02    1.08602153873733e-03    4.25902595169316e-07    2.17026647640946e-04
00.85    1.53759815686287e-02    1.15983990823770e-03    4.45824989128452e-07    2.31582840494330e-04
00.86    1.61578410968386e-02    1.23880628113617e-03    4.65768726602597e-07    2.47138538263624e-04
00.87    1.69725774799470e-02    1.32335606658399e-03    4.85574127444511e-07    2.63777394033858e-04
00.88    1.78215251839688e-02    1.41396338615865e-03    5.05070228372716e-07    2.81590414471120e-04
00.89    1.87060709694073e-02    1.51113646770489e-03    5.24089445375148e-07    3.00675002022546e-04
00.90    1.96276287035348e-02    1.61541169274966e-03    5.42490152272301e-07    3.21133726620272e-04
00.91    2.05876074397039e-02    1.72735080116831e-03    5.60186037536892e-07    3.43073721060798e-04
00.92    2.15873831991474e-02    1.84754779759450e-03    5.77178060049999e-07    3.66607993605665e-04
00.93    2.26282892084431e-02    1.97665168113624e-03    5.93581823500147e-07    3.91859864226874e-04
00.94    2.37116391008993e-02    2.11540653789739e-03    6.09641855257019e-07    4.18970818928726e-04
00.95    2.48387909296655e-02    2.26470153916827e-03    6.25726576434499e-07    4.48110301599481e-04
00.96    2.60112466885282e-02    2.42561213227856e-03    6.42305106206576e-07    4.79483747581251e-04
00.97    2.72307669224688e-02    2.59940495971682e-03    6.59919431132723e-07    5.13333456309691e-04
00.98    2.84994682288074e-02    2.78747888294976e-03    6.79180544988173e-07    5.49926888699098e-04
00.99    2.98198693235733e-02    2.99122760719272e-03    7.00830177286569e-07    5.89529581398539e-04
01.00    3.11948616801161e-02    3.21183615544758e-03    7.25914114916627e-07    6.32365136121522e-04
01.01    3.26276017779340e-02    3.45005795353164e-03    7.56102209888230e-07    6.78571510869078e-04
01.02    3.41213455801789e-02    3.70604991901872e-03    7.94159210095486e-07    7.28168806045167e-04
01.03    3.56792634874110e-02    3.97935579415304e-03    8.44519248949010e-07    7.81056185609033e-04
01.04    3.73042776025789e-02    4.26911190047115e-03    9.13851482918606e-07    8.37052339925956e-04
01.05    3.89989517240164e-02    4.57450134601564e-03    1.01143933696723e-06    8.95984398222789e-04
01.06    4.07654448021286e-02    4.89541017544608e-03    1.14915331702196e-06    9.57815988757217e-04
01.07    4.26055201647231e-02    5.23315986667140e-03    1.34080381259625e-06    1.02278973937389e-03
01.08    4.45205972095492e-02    5.59112886752187e-03    1.60073921161179e-06    1.09154760270375e-03
01.09    4.65118420063405e-02    5.97505469978334e-03    1.94171510822267e-06    1.16518846884008e-03
01.10    4.85803139250593e-02    6.39284263531722e-03    2.37228679051596e-06    1.24522948149532e-03
01.11    5.07272036312670e-02    6.85379844600672e-03    2.89422476627988e-06    1.33345548510502e-03
01.12    5.29541990482243e-02    7.36733643772375e-03    3.50065642996784e-06    1.43166713009316e-03
01.13    5.52639903246746e-02    7.94136141871246e-03    4.17573153111389e-06    1.54136674201437e-03
01.14    5.76608755925851e-02    8.58064890892049e-03    4.89655836357531e-06    1.66344519469846e-03
01.15    6.01513679601482e-02    9.28561818507107e-03    5.63797142306092e-06    1.79794622161240e-03
01.16    6.27446507332451e-02    1.00518852351763e-02    6.38042284604630e-06    1.94398261408104e-03
01.17    6.54526987097447e-02    1.08708910643078e-02    7.12100905614299e-06    2.09986048021633e-03
01.18    6.82898883444704e-02    1.17317365558360e-02    7.88739981672279e-06    2.26343558370615e-03
01.19    7.12719602686535e-02    1.26241434603259e-02    8.75423218034263e-06    2.43268473718623e-03
01.20    7.44142709032319e-02    1.35422363469790e-02    9.86133149025148e-06    2.60643204574865e-03
01.21    7.77293752008663e-02    1.44886390615155e-02    1.14328844164123e-05    2.78513152176620e-03
01.22    8.12241222844876e-02    1.54782378954992e-02    1.37964308607303e-05    2.97158123330588e-03
01.23    8.48966232998417e-02    1.65409128955253e-02    1.74003642407989e-05    3.17143541713521e-03
01.24    8.87336549571787e-02    1.77226032501099e-02    2.28287326083742e-05    3.39339444806812e-03
01.25    9.27092617012330e-02    1.90842605079717e-02    3.08127560761585e-05    3.64898948961037e-03
01.26    9.67854566974407e-02    2.06985443291878e-02    4.22398006013939e-05    3.95193689082033e-03
01.27    1.00915930293235e-01    2.26444868752717e-02    5.81625418031553e-05    4.31710852064246e-03
01.28    1.05053508592583e-01    2.50007261531596e-02    7.98133060737458e-05    4.75923532082569e-03
01.29    1.09161758972557e-01    2.78381972334386e-02    1.08630051096571e-04    5.29151545791137e-03
01.30    1.13230659909839e-01    3.12132978599277e-02    1.46299299260760e-04    5.92432141307809e-03
01.31    1.17295710131049e-01    3.51624786999791e-02    1.94814992476107e-04    6.66418616065128e-03
01.32    1.21459317689337e-01    3.96989948643708e-02    2.56538220136106e-04    7.51320629330861e-03
01.33    1.25912826307745e-01    4.48123253164665e-02    3.34220423609595e-04    8.46895456555257e-03
01.34    1.30957093093695e-01    5.04706906981202e-02    4.30926112659448e-04    9.52497811022173e-03
01.35    1.37019050179737e-01    5.66272821740265e-02    5.49772383173707e-04    1.06719911951864e-02
01.36    1.44661054660978e-01    6.32311563632303e-02    6.93411289337139e-04    1.18999343323635e-02
01.37    1.54578975668293e-01    7.02438600532739e-02    8.63238406585877e-04    1.32010912478541e-02
01.38    1.67583901701848e-01    7.76620445232324e-02    1.05842591690970e-03    1.45743051348610e-02
01.39    1.84561523331717e-01    8.55439746361592e-02    1.27503290763787e-03    1.60298980288776e-02
01.40    2.06403875831800e-01    9.40339157192534e-02    1.50558571205762e-03    1.75941707538229e-02
01.41    2.33912026039858e-01    1.03373969774829e-01    1.73956851243201e-03    1.93115481335060e-02
01.42    2.67677028181607e-01    1.13890333947224e-01    1.96514836906500e-03    2.12419637333392e-02
01.43    3.07959722877894e-01    1.25942949278090e-01    2.17216570570327e-03    2.34514640015000e-02
01.44    3.54603534187710e-01    1.39835714584988e-01    2.35602969035333e-03    2.59955480894574e-02
01.45    4.07020195634338e-01    1.55697775568870e-01    2.52182112597746e-03    2.88972364964078e-02
01.46    4.64277013256495e-01    1.73360417370075e-01    2.68777823376614e-03    3.21244471310060e-02
01.47    5.25280985593070e-01    1.92262392836983e-01    2.88747897799257e-03    3.55727640713236e-02
01.48    5.89006323047417e-01    2.11414488005867e-01    3.17032056390585e-03    3.90592630451984e-02
01.49    6.54668032119138e-01    2.29442100704207e-01    3.60009382054495e-03    4.23307850422816e-02
01.50    7.21732456615667e-01    2.44707846080998e-01    4.25134551200213e-03    4.50869143062313e-02
01.51    7.89694591090325e-01    2.55501243169288e-01    5.20278260786085e-03    4.70151422126086e-02
01.52    8.57638024857737e-01    2.60272522547840e-01    6.52653111744447e-03    4.78338727942809e-02
01.53    9.23698205527565e-01    2.57880800411837e-01    8.27236381344909e-03    4.73377296082734e-02
01.54    9.84630838496417e-01    2.47820284261340e-01    1.04478226145488e-02    4.54384926411807e-02
01.55    1.03570621453894e+00    2.30382808090763e-01    1.29984906474807e-02    4.21940923019846e-02
01.56    1.07108814163189e+00    2.06716922018383e-01    1.57961177292898e-02    3.78185113400100e-02
01.57    1.08472057437719e+00    1.78758779162005e-01    1.86433123008999e-02    3.26682411215766e-02
01.58    1.07157084519348e+00    1.49036569987318e-01    2.12998797084054e-02    2.72058034786856e-02
01.59    1.02892329361821e+00    1.20377957397989e-01    2.35277993376292e-02    2.19458969914762e-02
01.60    9.57347143514601e-01    9.55668563192514e-02    2.51427351319888e-02    1.73927645522693e-02
01.61    8.61023649544413e-01    7.69976036611920e-02    2.60550068400808e-02    1.39776140368993e-02
01.62    7.47303646259330e-01    6.63672134426473e-02    2.62856131359072e-02    1.20034838201129e-02
01.63    6.25608792541980e-01    6.44401309413391e-02    2.59523735447475e-02    1.16036874835963e-02
01.64    5.05984789276289e-01    7.09189352407776e-02    2.52326626368680e-02    1.27196901277105e-02
01.65    3.97680640412018e-01    8.44530386962244e-02    2.43167590854742e-02    1.51039422702425e-02
01.66    3.08049614936568e-01    1.02805138577668e-01    2.33664689065547e-02    1.83509543775647e-02
01.67    2.41901395157228e-01    1.23166868365274e-01    2.24885283994847e-02    2.19548239915745e-02
01.68    2.01271193821989e-01    1.42577269987254e-01    2.17251889249995e-02    2.53847031108629e-02
01.69    1.85482730854557e-01    1.58365846145249e-01    2.10590588795693e-02    2.81640907775624e-02
01.70    1.91389065064253e-01    1.68531303598166e-01    2.04272978013952e-02    2.99380660223003e-02
01.71    2.13747103352383e-01    1.71983602993521e-01    1.97408623967760e-02    3.05156624956094e-02
01.72    2.45757604653524e-01    1.68614067691932e-01    1.89058392831363e-02    2.98813186643772e-02
01.73    2.79825754604401e-01    1.59201413164965e-01    1.78444923481173e-02    2.81770674966050e-02
01.74    3.08543132834742e-01    1.45195751630029e-01    1.65132367721333e-02    2.56631964434375e-02
01.75    3.25780740099334e-01    1.28439210633954e-01    1.49141635544507e-02    2.26679815521128e-02
01.76    3.27673185707105e-01    1.10880664120418e-01    1.30971326491196e-02    1.95367901521916e-02
01.77    3.13234229317412e-01    9.43293326045836e-02    1.11514089863110e-02    1.65884770784507e-02
01.78    2.84412854755158e-01    8.02751358618785e-02    9.18886808631026e-03    1.40839217522716e-02
01.79    2.45559820491229e-01    6.97876185394445e-02    7.32360212281999e-03    1.22086591111996e-02
01.80    2.02458342701100e-01    6.34915381897086e-02    5.65386241871861e-03    1.10691202430769e-02
01.81    1.61195901608674e-01    6.16056761325249e-02    4.25104720323915e-03    1.06999900999118e-02
01.82    1.27165997929079e-01    6.40226392328065e-02    3.15746057049392e-03    1.10786896557893e-02
01.83    1.04396507822801e-01    7.04033301061541e-02    2.39124935023192e-03    1.21423245626915e-02
01.84    9.52614205279559e-02    8.02624215234258e-02    1.95472358118758e-03    1.38029514288345e-02
01.85    1.00513565595001e-01    9.30305163230764e-02    1.84194138821592e-03    1.59586716463240e-02
01.86    1.19520225200253e-01    1.08091424419224e-01    2.04279496983359e-03    1.85002934856412e-02
01.87    1.50592359425020e-01    1.24803727389162e-01    2.54299542229124e-03    2.13151676522584e-02
01.88    1.91341126636183e-01    1.42519678746826e-01    3.32130019280749e-03    2.42904697367535e-02
01.89    2.39034903661508e-01    1.60609951771253e-01    4.34635071557313e-03    2.73174196408605e-02
01.90    2.90942986800815e-01    1.78492715477723e-01    5.57538422025375e-03    3.02962062718689e-02
01.91    3.44638838111577e-01    1.95656147153487e-01    6.95607571569451e-03    3.31397840750385e-02
01.92    3.98215374653262e-01    2.11660966098556e-01    8.43130796992793e-03    3.57742792808616e-02
01.93    4.50362372454215e-01    2.26116584944158e-01    9.94528845467618e-03    3.81349337039313e-02
01.94    5.00286903506736e-01    2.38638410528620e-01    1.14486616570534e-02    4.01588663168466e-02
01.95    5.47516722011916e-01    2.48807718735976e-01    1.29005207618705e-02    4.17782603207630e-02
