# RiF 1e-20 (cm^2/W)
# 1w(eV) RpP                     RpS                     RsP                     RsS
00.01    7.21602374462078e-08    5.56949547393626e-09    5.59339092002590e-11    2.58987045988578e-09
00.02    9.66619819775256e-08    7.46421300776846e-09    7.49383440738128e-11    3.47087309185159e-09
00.03    1.49676520451936e-07    1.15655566862923e-08    1.16064114455051e-10    5.37787990271027e-09
00.04    2.39207743323543e-07    1.84964760994262e-08    1.85532670042027e-10    8.60048137512103e-09
00.05    3.77215087295057e-07    2.91891577136334e-08    2.92644625593366e-10    1.35719996868266e-08
00.06    5.79557854542058e-07    4.48823301195436e-08    4.49741850762834e-10    2.08682083251464e-08
00.07    8.65925981587128e-07    6.71180465406715e-08    6.72160743363340e-10    3.12057997168816e-08
00.08    1.25976654059353e-06    9.77386537552583e-08    9.78183863323822e-10    4.54409307167603e-08
00.09    1.78821712210167e-06    1.38884802226793e-07    1.38899851819869e-09    6.45682435631374e-08
00.10    2.48205503437484e-06    1.92995188569783e-07    1.92866921880052e-09    8.97206836409145e-08
00.11    3.37566616359486e-06    2.62808325833311e-07    2.62412690447186e-09    1.22170251286817e-07
00.12    4.50703166131585e-06    3.51366216533699e-07    3.50517354458044e-09    1.63329629316060e-07
00.13    5.91772700909705e-06    4.62019516184985e-07    4.60449781575169e-09    2.14754494197172e-07
00.14    7.65292705992013e-06    5.98433715413099e-07    5.95769691976628e-09    2.78146291077657e-07
00.15    9.76141185965934e-06    7.64595958754952e-07    7.60330059365945e-09    3.55355294659051e-07
00.16    1.22955705278587e-05    9.64822301683989e-07    9.58279519626231e-09    4.48383863557496e-07
00.17    1.53114024006933e-05    1.20376536387421e-06    1.19406472531443e-08    5.59389867853309e-07
00.18    1.88685160307955e-05    1.48642243521835e-06    1.47243268488881e-08    6.90690316539322e-07
00.19    2.30301272611399e-05    1.81814413958612e-06    1.79843317344897e-08    8.44765232985337e-07
00.20    2.78630570168938e-05    2.20464376332869e-06    2.17742125216816e-08    1.02426182766020e-06
00.21    3.34377293752011e-05    2.65200730102113e-06    2.61505996297020e-08    1.23199899205542e-06
00.22    3.98281696677935e-05    3.16670427972656e-06    3.11732318347459e-08    1.47097214006629e-06
00.23    4.71120022826735e-05    3.75559935892270e-06    3.69049864668503e-08    1.74435839509303e-06
00.24    5.53704482806989e-05    4.42596473614727e-06    4.34119112991987e-08    2.05552213591647e-06
00.25    6.46883233211226e-05    5.18549338398522e-06    5.07632580161154e-08    2.40802091253813e-06
00.26    7.51540369396526e-05    6.04231316284524e-06    5.90315177228876e-08    2.80561175359954e-06
00.27    8.68595937093316e-05    7.00500187551437e-06    6.82924582325518e-08    3.25225789547846e-06
00.28    9.99005962648326e-05    8.08260332489629e-06    7.86251631300421e-08    3.75213596070686e-06
00.29    1.14376248911762e-04    9.28464442289673e-06    9.01120721560772e-08    4.30964360652799e-06
00.30    1.30389360389846e-04    1.06211533996114e-05    1.02839021826090e-07    4.92940766503640e-06
00.31    1.48046344799693e-04    1.21026791418584e-05    1.16895286718378e-07    5.61629278651354e-06
00.32    1.67457220037554e-04    1.37403116999753e-05    1.32373621005457e-07    6.37541060306851e-06
00.33    1.88735604189576e-04    1.55457040236270e-05    1.49370302028643e-07    7.21212944104889e-06
00.34    2.11998712150309e-04    1.75310950180307e-05    1.67985176813614e-07    8.13208461899395e-06
00.35    2.37367353997547e-04    1.97093340733403e-05    1.88321712780465e-07    9.14118940193110e-06
00.36    2.64965939142390e-04    2.20939072511320e-05    2.10487051672992e-07    1.02456466924669e-05
00.37    2.94922486906929e-04    2.46989652707042e-05    2.34592065066944e-07    1.14519615272368e-05
00.38    3.27368642233222e-04    2.75393533907184e-05    2.60751409554891e-07    1.27669544206603e-05
00.39    3.62439691104838e-04    3.06306431332434e-05    2.89083580218857e-07    1.41977755365238e-05
00.40    4.00274570296481e-04    3.39891657208736e-05    3.19710960549473e-07    1.57519196242986e-05
00.41    4.41015868359322e-04    3.76320472420398e-05    3.52759872018928e-07    1.74372417178801e-05
00.42    4.84809820666826e-04    4.15772456490716e-05    3.88360622777396e-07    1.92619736405509e-05
00.43    5.31806305946160e-04    4.58435900096822e-05    4.26647560219851e-07    2.12347414998993e-05
00.44    5.82158852591702e-04    5.04508225883393e-05    4.67759127779361e-07    2.33645844421096e-05
00.45    6.36024659240333e-04    5.54196441383789e-05    5.11837929061138e-07    2.56609748461504e-05
00.46    6.93564628041230e-04    6.07717626572337e-05    5.59030795012176e-07    2.81338400841436e-05
00.47    7.54943402215913e-04    6.65299454024875e-05    6.09488853188301e-07    3.07935857563109e-05
00.48    8.20329397441249e-04    7.27180739395549e-05    6.63367593796887e-07    3.36511202825045e-05
00.49    8.89894818763717e-04    7.93612021870194e-05    7.20826932663856e-07    3.67178808065320e-05
00.50    9.63815667227364e-04    8.64856177973554e-05    7.82031269679808e-07    4.00058605386261e-05
00.51    1.04227174217419e-03    9.41189074414514e-05    8.47149543555341e-07    4.35276377920105e-05
00.52    1.12544665504155e-03    1.02290026831327e-04    9.16355281058671e-07    4.72964071158369e-05
00.53    1.21352785979940e-03    1.11029375868604e-04    9.89826639756440e-07    5.13260127407049e-05
00.54    1.30670669781968e-03    1.20368879121800e-04    1.06774644609374e-06    5.56309844632261e-05
00.55    1.40517844891501e-03    1.30342072145815e-04    1.15030223583510e-06    6.02265761970332e-05
00.56    1.50914238088790e-03    1.40984192984462e-04    1.23768630350855e-06    6.51288068395683e-05
00.57    1.61880179286619e-03    1.52332280844289e-04    1.33009576780513e-06    7.03545042918732e-05
00.58    1.73436405725294e-03    1.64425280684152e-04    1.42773264275017e-06    7.59213520199826e-05
00.59    1.85604066389429e-03    1.77304155512735e-04    1.53080390513831e-06    8.18479389730432e-05
00.60    1.98404727348193e-03    1.91012006313177e-04    1.63952154006751e-06    8.81538128846778e-05
00.61    2.11860378234762e-03    2.05594201163995e-04    1.75410255817082e-06    9.48595377362496e-05
00.62    2.25993440462101e-03    2.21098514555599e-04    1.87476898743783e-06    1.01986755828031e-04
00.63    2.40826776942800e-03    2.37575278715221e-04    2.00174785442058e-06    1.09558255243560e-04
00.64    2.56383702488855e-03    2.55077546400655e-04    2.13527115754462e-06    1.17598042373220e-04
00.65    2.72687993658470e-03    2.73661266248525e-04    2.27557584079755e-06    1.26131419910711e-04
00.66    2.89763897405065e-03    2.93385468551593e-04    2.42290376067730e-06    1.35185069401196e-04
00.67    3.07636139269786e-03    3.14312462829933e-04    2.57750164445225e-06    1.44787138984384e-04
00.68    3.26329932493435e-03    3.36508047812224e-04    2.73962104279751e-06    1.54967336733586e-04
00.69    3.45870989571280e-03    3.60041737087273e-04    2.90951827166933e-06    1.65757031088467e-04
00.70    3.66285536648432e-03    3.84987004788091e-04    3.08745433846223e-06    1.77189360292434e-04
00.71    3.87600329905701e-03    4.11421557512775e-04    3.27369482807761e-06    1.89299353586705e-04
00.72    4.09842673958834e-03    4.39427638839419e-04    3.46850972056392e-06    2.02124066912367e-04
00.73    4.33040441384196e-03    4.69092367838546e-04    3.67217314080991e-06    2.15702733605698e-04
00.74    4.57222094167337e-03    5.00508109592522e-04    3.88496304975272e-06    2.30076929179578e-04
00.75    4.82416705339124e-03    5.33772869165692e-04    4.10716091258455e-06    2.45290746332018e-04
00.76    5.08653980351862e-03    5.68990706511748e-04    4.33905134916375e-06    2.61390979161492e-04
00.77    5.35964276923299e-03    6.06272173661693e-04    4.58092175141518e-06    2.78427317278123e-04
00.78    5.64378626676845e-03    6.45734790273809e-04    4.83306179964170e-06    2.96452557175613e-04
00.79    5.93928762609744e-03    6.87503574052863e-04    5.09576282818087e-06    3.15522838263984e-04
00.80    6.24647155710766e-03    7.31711636486389e-04    5.36931703224799e-06    3.35697908139025e-04
00.81    6.56567059703804e-03    7.78500846576976e-04    5.65401653372757e-06    3.57041418164710e-04
00.82    6.89722557216864e-03    8.28022556365728e-04    5.95015232992392e-06    3.79621246469211e-04
00.83    7.24148604172537e-03    8.80438392160365e-04    6.25801308726314e-06    4.03509849988953e-04
00.84    7.59881070900761e-03    9.35921129190526e-04    6.57788370720085e-06    4.28784653523633e-04
00.85    7.96956787318759e-03    9.94655677571370e-04    6.91004355813762e-06    4.55528488204700e-04
00.86    8.35413598570209e-03    1.05684020295301e-03    7.25476429697448e-06    4.83830089847614e-04
00.87    8.75290436014569e-03    1.12268739354201e-03    7.61230720497562e-06    5.13784662521659e-04
00.88    9.16627399265249e-03    1.19242587539056e-03    7.98291995609557e-06    5.45494508468577e-04
00.89    9.59465843250375e-03    1.26630178174610e-03    8.36683270364320e-06    5.79069727312016e-04
00.90    1.00384846544778e-02    1.34458050135585e-03    8.76425334151560e-06    6.14628995670178e-04
00.91    1.04981939668468e-02    1.42754865644529e-03    9.17536173826848e-06    6.52300449640455e-04
00.92    1.09742430225937e-02    1.51551637155904e-03    9.60030276806156e-06    6.92222696699860e-04
00.93    1.14671050436132e-02    1.60881990008903e-03    1.00391779555823e-05    7.34545986476748e-04
00.94    1.19772712649916e-02    1.70782466166158e-03    1.04920356176262e-05    7.79433564245923e-04
00.95    1.25052524999494e-02    1.81292874742822e-03    1.09588595533821e-05    8.27063233302550e-04
00.96    1.30515806890598e-02    1.92456697378722e-03    1.14395564600197e-05    8.77629163280815e-04
00.97    1.36168103395024e-02    2.04321562849232e-03    1.19339422514718e-05    9.31344009406633e-04
00.98    1.42015200654279e-02    2.16939812910673e-03    1.24417272156776e-05    9.88441441026761e-04
00.99    1.48063147155202e-02    2.30369180979889e-03    1.29624995728346e-05    1.04917917561604e-03
01.00    1.54318288430038e-02    2.44673582785459e-03    1.34957067457430e-05    1.11384251229462e-03
01.01    1.60787319609328e-02    2.59923957663670e-03    1.40406341940170e-05    1.18274808581553e-03
01.02    1.67477353831566e-02    2.76199005209831e-03    1.45963833449594e-05    1.25624713646089e-03
01.03    1.74395991115109e-02    2.93585562778011e-03    1.51618535123774e-05    1.33472714274755e-03
01.04    1.81551359707282e-02    3.12178338420793e-03    1.57357372275949e-05    1.41861052391161e-03
01.05    1.88952094194191e-02    3.32078846698169e-03    1.63165429404370e-05    1.50834972264625e-03
01.06    1.96607220841377e-02    3.53393759983075e-03    1.69026611123717e-05    1.60441963340931e-03
01.07    2.04525945548592e-02    3.76233459994760e-03    1.74924862249404e-05    1.70731093303410e-03
01.08    2.12717381873076e-02    4.00712153053450e-03    1.80845957191509e-05    1.81753048638077e-03
01.09    2.21190304451273e-02    4.26951137656080e-03    1.86779673957327e-05    1.93561600972995e-03
01.10    2.29953044123061e-02    4.55086257573557e-03    1.92721941388959e-05    2.06216965115878e-03
01.11    2.39013636227805e-02    4.85279007950207e-03    1.98676388752208e-05    2.19790805543185e-03
01.12    2.48380277691270e-02    5.17728390739971e-03    2.04654767367182e-05    2.34371576518017e-03
01.13    2.58062050699031e-02    5.52678232773694e-03    2.10676069960972e-05    2.50067806319184e-03
01.14    2.68069762861197e-02    5.90413546220889e-03    2.16764870005808e-05    2.67006428549672e-03
01.15    2.78416674771350e-02    6.31240840929126e-03    2.22950314336424e-05    2.85323869825218e-03
01.16    2.89118877665347e-02    6.75451686813715e-03    2.29268032582041e-05    3.05149589174776e-03
01.17    3.00195153834074e-02    7.23275609606540e-03    2.35767567983690e-05    3.26584826879993e-03
01.18    3.11666283635821e-02    7.74835644878279e-03    2.42527380946695e-05    3.49682580658759e-03
01.19    3.23553903858545e-02    8.30124741737638e-03    2.49677787058119e-05    3.74437006957278e-03
01.20    3.35879120408607e-02    8.89021005815363e-03    2.57429424055994e-05    4.00790333838057e-03
01.21    3.48661101723083e-02    9.51353014150424e-03    2.66101440222531e-05    4.28662307334130e-03
01.22    3.61915834918019e-02    1.01701367930543e-02    2.76140404614558e-05    4.58001436281430e-03
01.23    3.75655164189835e-02    1.08610513491236e-02    2.88119094612749e-05    4.88850099310701e-03
01.24    3.89886208624916e-02    1.15908224155591e-02    3.02705027160198e-05    5.21408909262985e-03
01.25    4.04611311113037e-02    1.23685342588975e-02    3.20592772212596e-05    5.56081777316212e-03
01.26    4.19828771852691e-02    1.32079857962302e-02    3.42401864491063e-05    5.93483630224139e-03
01.27    4.35534691206105e-02    1.41267634920352e-02    3.68552539326100e-05    6.34398450031021e-03
01.28    4.51726180646605e-02    1.51441608768113e-02    3.99142404453257e-05    6.79685642905462e-03
01.29    4.68405925424271e-02    1.62781876858365e-02    4.33855636815444e-05    7.30145773709801e-03
01.30    4.85587640872885e-02    1.75421988804510e-02    4.71939613316916e-05    7.86369548094187e-03
01.31    5.03301465736794e-02    1.89418870803274e-02    5.12280420376501e-05    8.48603401323653e-03
01.32    5.21597972986610e-02    2.04734604071419e-02    5.53598558500271e-05    9.16668452643658e-03
01.33    5.40549391285864e-02    2.21237363665034e-02    5.94771145319891e-05    9.89965363557760e-03
01.34    5.60246861087015e-02    2.38726205413701e-02    6.35269742900594e-05    1.06758580428597e-02
01.35    5.80793023180489e-02    2.56980419981862e-02    6.75686180783585e-05    1.14853340893386e-02
01.36    6.02289816486139e-02    2.75829498235944e-02    7.18304245577042e-05    1.23203619530208e-02
01.37    6.24821936326885e-02    2.95235188703126e-02    7.67663691433613e-05    1.31791211046396e-02
01.38    6.48437008573058e-02    3.15373521751134e-02    8.31055108618020e-05    1.40693341349351e-02
01.39    6.73124303529311e-02    3.36702776111629e-02    9.18880328282063e-05    1.50112734731936e-02
01.40    6.98794911931332e-02    3.60003661786067e-02    1.04481435765012e-04    1.60395213649412e-02
01.41    7.25267750396008e-02    3.86380687489744e-02    1.22571322015959e-04    1.72029959325660e-02
01.42    7.52267271157741e-02    4.17218504057953e-02    1.48123012849545e-04    1.85629730477651e-02
01.43    7.79439762460095e-02    4.54093311307388e-02    1.83313252781770e-04    2.01891150926887e-02
01.44    8.06394965718151e-02    4.98646128312974e-02    2.30435508313289e-04    2.21538163409652e-02
01.45    8.32777876960594e-02    5.52430667095834e-02    2.91787254450756e-04    2.45254375813334e-02
01.46    8.58371914895928e-02    6.16752735347259e-02    3.69551444797801e-04    2.73611862172902e-02
01.47    8.83229467733583e-02    6.92520293352099e-02    4.65684191464530e-04    3.07004923041146e-02
01.48    9.07819943266625e-02    7.80124324868334e-02    5.81813400293460e-04    3.45597723547206e-02
01.49    9.33180001333344e-02    8.79372373409398e-02    7.19137350099968e-04    3.89295421723194e-02
01.50    9.61047011088663e-02    9.89500778995459e-02    8.78291059741529e-04    4.37750182836861e-02
01.51    9.93956028604450e-02    1.10929827461824e-01    1.05913199934897e-03    4.90416334317482e-02
01.52    1.03528283485771e-01    1.23737853193343e-01    1.26040155979139e-03    5.46671023261443e-02
01.53    1.08921914178311e-01    1.37263341950823e-01    1.47926024332907e-03    6.06014120753840e-02
01.54    1.16066736797451e-01    1.51486921440939e-01    1.71077653643435e-03    6.68348095316070e-02
01.55    1.25503780943426e-01    1.66556363441666e-01    1.94755399480627e-03    7.34310292736399e-02
01.56    1.37792218772732e-01    1.82858400584402e-01    2.17976866629860e-03    8.05587299097499e-02
01.57    1.53461510848773e-01    2.01060032128556e-01    2.39591163387344e-03    8.85094507348931e-02
01.58    1.72947700660809e-01    2.22085929624336e-01    2.58445229314715e-03    9.76874708090741e-02
01.59    1.96519427465516e-01    2.47001767907291e-01    2.73645304564575e-03    1.08558412501329e-01
01.60    2.24208897227445e-01    2.76790972699773e-01    2.84892313414152e-03    1.21551226601916e-01
01.61    2.55772049212373e-01    3.12043953639804e-01    2.92849203952162e-03    1.36922062991078e-01
01.62    2.90703490509152e-01    3.52616637153888e-01    2.99490968278772e-03    1.54605048402541e-01
01.63    3.28318810303268e-01    3.97344678216489e-01    3.08398171475991e-03    1.74087860922107e-01
01.64    3.67888655031799e-01    4.43906186728187e-01    3.24973215426033e-03    1.94352682552745e-01
01.65    4.08774638971417e-01    4.88902207212637e-01    3.56562152050160e-03    2.13912624123985e-01
01.66    4.50494942000081e-01    5.28176403113546e-01    4.12430231708292e-03    2.30952673417665e-01
01.67    4.92655562723965e-01    5.57339580994554e-01    5.03459258673773e-03    2.43559745248775e-01
01.68    5.34728050596157e-01    5.72418265671563e-01    6.41334965623106e-03    2.50006165849239e-01
01.69    5.75723902850728e-01    5.70519236559073e-01    8.36952671783214e-03    2.49039156628658e-01
01.70    6.13881977849387e-01    5.50394358560782e-01    1.09790756451245e-02    2.40125815808022e-01
01.71    6.46517227322973e-01    5.12799965723387e-01    1.42532838581518e-02    2.23607689876178e-01
01.72    6.70156706282430e-01    4.60573234088542e-01    1.81088229411059e-02    2.00731532498703e-01
01.73    6.81011675687093e-01    3.98395654528244e-01    2.23523839836023e-02    1.73543752700956e-01
01.74    6.75722697668513e-01    3.32274089582332e-01    2.66923915028540e-02    1.44662373188297e-01
01.75    6.52204046459053e-01    2.68824714399572e-01    3.07826605286638e-02    1.16964108888502e-01
01.76    6.10347671649592e-01    2.14473888366406e-01    3.42899245212502e-02    9.32365327798757e-02
01.77    5.52360227800252e-01    1.74685416670771e-01    3.69651110658342e-02    7.58430909196408e-02
01.78    4.82606519998846e-01    1.53298548743972e-01    3.86941551718984e-02    6.64375629010618e-02
01.79    4.06986590993020e-01    1.52038053111774e-01    3.95111543683370e-02    6.57543064513230e-02
01.80    3.32018473489672e-01    1.70249998350354e-01    3.95714668018374e-02    7.34970378235723e-02
01.81    2.63871792578662e-01    2.04917025542964e-01    3.90971684959533e-02    8.83487984428382e-02
01.82    2.07572059173778e-01    2.50993459756356e-01    3.83149802706617e-02    1.08119874366704e-01
01.83    1.66495215976505e-01    3.02056867598909e-01    3.74050747224965e-02    1.30031564085989e-01
01.84    1.42154881956867e-01    3.51202408827702e-01    3.64711472475834e-02    1.51103487717073e-01
01.85    1.34208548669087e-01    3.92034666375474e-01    3.55332079162636e-02    1.68581449119502e-01
01.86    1.40600426195142e-01    4.19571022243038e-01    3.45387912711755e-02    1.80325672244030e-01
01.87    1.57803718395891e-01    4.30882483404128e-01    3.33865528183856e-02    1.85084683453700e-01
01.88    1.81181588308005e-01    4.25360828217240e-01    3.19568374180114e-02    1.82607524761750e-01
01.89    2.05508470642844e-01    4.04592239715650e-01    3.01445084534330e-02    1.73586443143202e-01
01.90    2.25658084326953e-01    3.71905223723305e-01    2.78890126925924e-02    1.59459895339377e-01
01.91    2.37383417272092e-01    3.31718077818949e-01    2.51959077186058e-02    1.42130255144311e-01
01.92    2.38030139547670e-01    2.88827820950484e-01    2.21444459210674e-02    1.23657494386014e-01
01.93    2.26990734624098e-01    2.47764724442917e-01    1.88784472123713e-02    1.05982173446534e-01
01.94    2.05753873993735e-01    2.12299918602938e-01    1.55823357676250e-02    9.07150675093960e-02
01.95    1.77521632134075e-01    1.85152252379106e-01    1.24490839703174e-02    7.90128549663371e-02
