# RiF 1e-20 (cm^2/W)
# 1w(eV) RpP                     RpS                     RsP                     RsS
00.01    1.73716513162439e-08    9.33297700619362e-10    3.68279142934633e-12    1.84421638802754e-10
00.02    2.32697597069640e-08    1.25076503844846e-09    4.93381498629167e-12    2.47146347396615e-10
00.03    3.60313435610289e-08    1.93794343076500e-09    7.64091273648127e-12    3.82914321896532e-10
00.04    5.75826976172696e-08    3.09916934684560e-09    1.22133326456181e-11    6.12331693738376e-10
00.05    9.08019519905657e-08    4.89055848321981e-09    1.92627686133825e-11    9.66227914746826e-10
00.06    1.39505499248059e-07    7.51953753111138e-09    2.96007455337129e-11    1.48555980242159e-09
00.07    2.08431104227050e-07    1.12442828720111e-08    4.42353853375931e-11    2.22129607811475e-09
00.08    3.03219933238383e-07    1.63731851329240e-08    6.43680277239880e-11    3.23430590897359e-09
00.09    4.30400189802296e-07    2.32644829087615e-08    9.13902718846498e-11    4.59527978552259e-09
00.10    5.97374511081857e-07    3.23261814900349e-08    1.26881894719605e-10    6.38470561684480e-09
00.11    8.12412045172592e-07    4.40163058723963e-08    1.72609836056682e-10    8.69290976943917e-09
00.12    1.08464477157594e-06    5.88434670217048e-08    2.30528158153648e-10    1.16201588705729e-08
00.13    1.42406674408834e-06    7.73676719410751e-08    3.02778696329361e-10    1.52768086195783e-08
00.14    1.84153471410126e-06    1.00201298237360e-07    3.91692075855353e-10    1.97834838972419e-08
00.15    2.34876888411433e-06    1.28010168953173e-07    4.99788835025087e-10    2.52712774322983e-08
00.16    2.95835314681256e-06    1.61514694552866e-07    6.29780516588543e-10    3.18819604576966e-08
00.17    3.68373460354078e-06    2.01491074317003e-07    7.84570684818748e-10    3.97682037542684e-08
00.18    4.53922253676188e-06    2.48772567335714e-07    9.67255894142952e-10    4.90938110983822e-08
00.19    5.53998711391996e-06    3.04250849952877e-07    1.18112666236441e-09    6.00339683786205e-08
00.20    6.70205797822909e-06    3.68877477450133e-07    1.42966847646011e-09    7.27755118331735e-08
00.21    8.04232286969042e-06    4.43665458434472e-07    1.71656287135591e-09    8.75172170225784e-08
00.22    9.57852616377796e-06    5.29690950173224e-07    2.04568857202341e-09    1.04470109981200e-07
00.23    1.13292672620922e-05    6.28095074107450e-07    2.42112270211812e-09    1.23857800342969e-07
00.24    1.33139988380794e-05    7.40085855230238e-07    2.84714205535792e-09    1.45916837096085e-07
00.25    1.55530250558623e-05    8.66940289519027e-07    3.32822442238396e-09    1.70897087688722e-07
00.26    1.80675000327687e-05    1.01000654704179e-06    3.86904999613626e-09    1.99062142072512e-07
00.27    2.08794267089045e-05    1.17070632295951e-06    4.47450284213632e-09    2.30689743944219e-07
00.28    2.40116560910486e-05    1.35053734486986e-06    5.14967243011633e-09    2.66072250821348e-07
00.29    2.74878866186320e-05    1.55107604548904e-06    5.89985520822464e-09    3.05517124468759e-07
00.30    3.13326632873909e-05    1.77398040704393e-06    6.73055615469305e-09    3.49347452842564e-07
00.31    3.55713763172191e-05    2.02099298139835e-06    7.64749032925478e-09    3.97902504094126e-07
00.32    4.02302592474483e-05    2.29394409433274e-06    8.65658442160499e-09    4.51538314082935e-07
00.33    4.53363865919819e-05    2.59475524262205e-06    9.76397838500189e-09    5.10628309131689e-07
00.34    5.09176714533794e-05    2.92544269589096e-06    1.09760272197299e-08    5.75563965851619e-07
00.35    5.70028634325431e-05    3.28812132533266e-06    1.22993029463555e-08    6.46755512463277e-07
00.36    6.36215475675979e-05    3.68500868061755e-06    1.37405966566969e-08    7.24632675590708e-07
00.37    7.08041445373204e-05    4.11842934168158e-06    1.53069205644344e-08    8.09645477907991e-07
00.38    7.85819117472442e-05    4.59081955679634e-06    1.70055099389069e-08    9.02265088794885e-07
00.39    8.69869444127121e-05    5.10473217204045e-06    1.88438249273106e-08    1.00298472895428e-06
00.40    9.60521755233197e-05    5.66284183534938e-06    2.08295522012226e-08    1.11232062504779e-06
00.41    1.05811373954174e-04    6.26795047498132e-06    2.29706066037167e-08    1.23081301319776e-06
00.42    1.16299141413977e-04    6.92299306637114e-06    2.52751326859003e-08    1.35902719347519e-06
00.43    1.27550909414779e-04    7.63104373394841e-06    2.77515063115359e-08    1.49755464417417e-06
00.44    1.39602938058077e-04    8.39532227859686e-06    3.04083363531343e-08    1.64701421419305e-06
00.45    1.52492317544707e-04    9.21920118775252e-06    3.32544667009841e-08    1.80805340554211e-06
00.46    1.66256972416621e-04    1.01062131845423e-05    3.62989784416914e-08    1.98134975757209e-06
00.47    1.80935667092297e-04    1.10600592966827e-05    3.95511921881942e-08    2.16761232854376e-06
00.48    1.96568010534940e-04    1.20846174163087e-05    4.30206702816894e-08    2.36758326689890e-06
00.49    2.13194457767300e-04    1.31839513238681e-05    4.67172187160614e-08    2.58203946420849e-06
00.50    2.30856308328463e-04    1.43623202003856e-05    5.06508886057019e-08    2.81179429218105e-06
00.51    2.49595702903915e-04    1.56241887115355e-05    5.48319771608463e-08    3.05769943944730e-06
00.52    2.69455621767574e-04    1.69742377947735e-05    5.92710280549747e-08    3.32064687602092e-06
00.53    2.90479887444274e-04    1.84173762538597e-05    6.39788312796471e-08    3.60157096832940e-06
00.54    3.12713171995163e-04    1.99587532293923e-05    6.89664228824357e-08    3.90145076074916e-06
00.55    3.36201007014584e-04    2.16037716266761e-05    7.42450850835260e-08    4.22131243850638e-06
00.56    3.60989793147514e-04    2.33581023418095e-05    7.98263471331074e-08    4.56223193780909e-06
00.57    3.87126806306424e-04    2.52276995331416e-05    8.57219868897973e-08    4.92533774478475e-06
00.58    4.14660201139904e-04    2.72188167063244e-05    9.19440323156161e-08    5.31181383479602e-06
00.59    4.43639013229492e-04    2.93380239079495e-05    9.85047621079413e-08    5.72290280731674e-06
00.60    4.74113164001744e-04    3.15922261072526e-05    1.05416704700337e-07    6.15990923488442e-06
00.61    5.06133470795551e-04    3.39886830888257e-05    1.12692635543370e-07    6.62420329253199e-06
00.62    5.39751662664077e-04    3.65350310008873e-05    1.20345573180275e-07    7.11722469572392e-06
00.63    5.75020399547206e-04    3.92393057764517e-05    1.28388774746565e-07    7.64048698640832e-06
00.64    6.11993290893388e-04    4.21099682926132e-05    1.36835731443706e-07    8.19558213408258e-06
00.65    6.50724909531893e-04    4.51559313166968e-05    1.45700163412033e-07    8.78418545426996e-06
00.66    6.91270802025909e-04    4.83865879944885e-05    1.54996013918237e-07    9.40806079858459e-06
00.67    7.33687498300474e-04    5.18118420790486e-05    1.64737442167979e-07    1.00690660558733e-05
00.68    7.78032526996537e-04    5.54421400960278e-05    1.74938814859973e-07    1.07691590104454e-05
00.69    8.24364439954848e-04    5.92885060270451e-05    1.85614696997513e-07    1.15104036688475e-05
00.70    8.72742844532807e-04    6.33625791756524e-05    1.96779842346776e-07    1.22949771766427e-05
00.71    9.23228439699626e-04    6.76766562142916e-05    2.08449182929052e-07    1.31251775087863e-05
00.72    9.75883051839672e-04    7.22437383965054e-05    2.20637817393045e-07    1.40034321113962e-05
00.73    1.03076966497866e-03    7.70775839200610e-05    2.33360996743179e-07    1.49323074808361e-05
00.74    1.08795244837643e-03    8.21927649642967e-05    2.46634105716017e-07    1.59145195890959e-05
00.75    1.14749678216425e-03    8.76047278551263e-05    2.60472638185422e-07    1.69529448596291e-05
00.76    1.20946928690986e-03    9.33298560069346e-05    2.74892165021328e-07    1.80506316302899e-05
00.77    1.27393785879841e-03    9.93855359014994e-05    2.89908292805291e-07    1.92108121550021e-05
00.78    1.34097171701512e-03    1.05790229193309e-04    3.05536616050403e-07    2.04369157329088e-05
00.79    1.41064146641491e-03    1.12563553890813e-04    3.21792666255654e-07    2.17325835173179e-05
00.80    1.48301917576866e-03    1.19726376333943e-04    3.38691861345368e-07    2.31016853207433e-05
00.81    1.55817846683096e-03    1.27300914135069e-04    3.56249454805864e-07    2.45483384365730e-05
00.82    1.63619460409030e-03    1.35310848515129e-04    3.74480478414067e-07    2.60769281715450e-05
00.83    1.71714457992089e-03    1.43781446171277e-04    3.93399670703615e-07    2.76921301035439e-05
00.84    1.80110719261860e-03    1.52739693149579e-04    4.13021383157366e-07    2.93989345289102e-05
00.85    1.88816312556273e-03    1.62214445308689e-04    4.33359462425515e-07    3.12026739476967e-05
00.86    1.97839503658199e-03    1.72236599414941e-04    4.54427109458073e-07    3.31090543351506e-05
00.87    2.07188766895592e-03    1.82839287036934e-04    4.76236714323047e-07    3.51241906023101e-05
00.88    2.16872798747095e-03    1.94058091950339e-04    4.98799660876041e-07    3.72546463775095e-05
00.89    2.26900534132366e-03    2.05931291770798e-04    5.22126087266807e-07    3.95074782576665e-05
00.90    2.37281164794550e-03    2.18500127084512e-04    5.46224586984311e-07    4.18902851308619e-05
00.91    2.48024159557729e-03    2.31809105601934e-04    5.71101838669273e-07    4.44112639586597e-05
00.92    2.59139285479368e-03    2.45906350227690e-04    5.96762159896343e-07    4.70792736177128e-05
00.93    2.70636630208222e-03    2.60844001907753e-04    6.23206988810899e-07    4.99039087916939e-05
00.94    2.82526625795560e-03    2.76678686693976e-04    6.50434300432470e-07    5.28955856535678e-05
00.95    2.94820073927122e-03    2.93472056717409e-04    6.78437962151963e-07    5.60656411543262e-05
00.96    3.07528173013698e-03    3.11291417650447e-04    7.07207026580083e-07    5.94264483002557e-05
00.97    3.20662547425193e-03    3.30210463835281e-04    7.36724949078189e-07    6.29915513598850e-05
00.98    3.34235282775156e-03    3.50310153404598e-04    7.66968708583019e-07    6.67758269970130e-05
00.99    3.48258975881075e-03    3.71679755894689e-04    7.97907802040308e-07    7.07956773240903e-05
01.00    3.62746812725781e-03    3.94418070562627e-04    8.29503092285631e-07    7.50692543646643e-05
01.01    3.77712683510062e-03    4.18634718356678e-04    8.61705524621279e-07    7.96166974564390e-05
01.02    3.93171330988039e-03    4.44451261396196e-04    8.94454833234084e-07    8.44603369892024e-05
01.03    4.09138500794336e-03    4.72001744310545e-04    9.27678540236969e-07    8.96247878617440e-05
01.04    4.25631033493499e-03    5.01432201343670e-04    9.61291809862297e-07    9.51368466014873e-05
01.05    4.42666820370133e-03    5.32898884731737e-04    9.95198976717667e-07    1.01025146264644e-04
01.06    4.60264557523070e-03    5.66565552665857e-04    1.02929768050931e-06    1.07319633285482e-04
01.07    4.78443288461906e-03    6.02601068562106e-04    1.06348632355181e-06    1.14051102684785e-04
01.08    4.97221816657166e-03    6.41179483725164e-04    1.09767487690495e-06    1.21251200996887e-04
01.09    5.16618172348149e-03    6.82485129752259e-04    1.13179790409768e-06    1.28953371942183e-04
01.10    5.36649383916073e-03    7.26724354716651e-04    1.16582731848518e-06    1.37195050624513e-04
01.11    5.57331789618891e-03    7.74143039394590e-04    1.19978145729596e-06    1.46020941015613e-04
01.12    5.78682006594247e-03    8.25045264137144e-04    1.23372731294326e-06    1.55486503939139e-04
01.13    6.00718466338347e-03    8.79804728308880e-04    1.26777489643798e-06    1.65660077301677e-04
01.14    6.23463198318462e-03    9.38858761709194e-04    1.30206687561131e-06    1.76621724671341e-04
01.15    6.46943379501488e-03    1.00267691953569e-03    1.33677202320902e-06    1.88457318847046e-04
01.16    6.71192152230191e-03    1.07170314268427e-03    1.37209588781530e-06    2.01247683561152e-04
01.17    6.96248363023856e-03    1.14628120751443e-03    1.40832399518827e-06    2.15054630219946e-04
01.18    7.22155151767539e-03    1.22658459214045e-03    1.44590946390378e-06    2.29907854629285e-04
01.19    7.48957614475181e-03    1.31257946409943e-03    1.48560680346980e-06    2.45798060021188e-04
01.20    7.76699959108068e-03    1.40404901532265e-03    1.52863728801387e-06    2.62681559745156e-04
01.21    8.05422609649580e-03    1.50069655500412e-03    1.57685141486669e-06    2.80499568532157e-04
01.22    8.35159605945372e-03    1.60232456657174e-03    1.63283553498663e-06    2.99211604254202e-04
01.23    8.65936509342939e-03    1.70906176333773e-03    1.69989951257276e-06    3.18837729480209e-04
01.24    8.97768984445179e-03    1.82158697050919e-03    1.78188715906880e-06    3.39500062943227e-04
01.25    9.30662364051427e-03    1.94128505015937e-03    1.88277631727136e-06    3.61451505180448e-04
01.26    9.64612750113698e-03    2.07027213318556e-03    2.00608137438520e-06    3.85080066623951e-04
01.27    9.99610380944949e-03    2.21124761601055e-03    2.15413158650772e-06    4.10881002020862e-04
01.28    1.03564587764148e-02    2.36716660223219e-03    2.32736112001652e-06    4.39395724603835e-04
01.29    1.07271940867860e-02    2.54077187915256e-03    2.52379418887774e-06    4.71124903519337e-04
01.30    1.11085187818961e-02    2.73406904773604e-03    2.73892533834750e-06    5.06431358370011e-04
01.31    1.15009618589999e-02    2.94786097537101e-03    2.96617175404330e-06    5.45454299627310e-04
01.32    1.19054583589153e-02    3.18146896298911e-03    3.19801286828155e-06    5.88058408885784e-04
01.33    1.23233798906207e-02    3.43275268149900e-03    3.42784352270455e-06    6.33838272824430e-04
01.34    1.27564854313852e-02    3.69849923107914e-03    3.65246687780107e-06    6.82190854976885e-04
01.35    1.32067782671714e-02    3.97518944842738e-03    3.87505751228735e-06    7.32457128804514e-04
01.36    1.36762669821183e-02    4.26007706021576e-03    4.10834438282898e-06    7.84120623444750e-04
01.37    1.41666401604307e-02    4.55244629553621e-03    4.37770223148149e-06    8.37037832255205e-04
01.38    1.46788765580331e-02    4.85485918052778e-03    4.72380058437632e-06    8.91665603554323e-04
01.39    1.52128277499293e-02    5.17417636219121e-03    5.20444445370648e-06    9.49245845547414e-04
01.40    1.57668323297674e-02    5.52214221573202e-03    5.89525567197203e-06    1.01190942711035e-03
01.41    1.63374495014241e-02    5.91536865806000e-03    6.88889817364528e-06    1.08266942846398e-03
01.42    1.69194298606105e-02    6.37462809829096e-03    8.29265731201100e-06    1.16528803757028e-03
01.43    1.75060598702541e-02    6.92346353869127e-03    1.02243535127286e-05    1.26401935498918e-03
01.44    1.80900104804695e-02    7.58622654554015e-03    1.28068023116899e-05    1.38324913376282e-03
01.45    1.86647789793734e-02    8.38574315748647e-03    1.61612883445486e-05    1.52706864986510e-03
01.46    1.92267349704005e-02    9.34086876244378e-03    2.04007044684319e-05    1.69883074753287e-03
01.47    1.97776753003203e-02    1.04642220149104e-02    2.56229622950466e-05    1.90074101105503e-03
01.48    2.03276759166756e-02    1.17603971004178e-02    3.19048305125007e-05    2.13353820478813e-03
01.49    2.08979230525450e-02    1.32249706067049e-02    3.92954422357024e-05    2.39632061075469e-03
01.50    2.15231360498897e-02    1.48446721641964e-02    4.78075895736999e-05    2.68658377293069e-03
01.51    2.22531857538570e-02    1.65991785961994e-02    5.74042565448509e-05    3.00055081017202e-03
01.52    2.31535706542474e-02    1.84650605898765e-02    6.79785494473119e-05    3.33388825984641e-03
01.53    2.43045093488838e-02    2.04223292127435e-02    7.93280450321655e-05    3.68288522320174e-03
01.54    2.57984681721064e-02    2.24636028870763e-02    9.11294846140030e-05    4.04609678701678e-03
01.55    2.77358891561353e-02    2.46049741911291e-02    1.02925181904212e-04    4.42628440926791e-03
01.56    3.02187302300643e-02    2.68962358484569e-02    1.14135817821119e-04    4.83223313094621e-03
01.57    3.33413430834472e-02    2.94266044877727e-02    1.24112845596831e-04    5.27975623435720e-03
01.58    3.71785263717322e-02    3.23211938253206e-02    1.32236744482755e-04    5.79104357431274e-03
01.59    4.17716876915276e-02    3.57241661206183e-02    1.38057174487547e-04    6.39163543873762e-03
01.60    4.71159747141657e-02    3.97673342365690e-02    1.41462507597165e-04    7.10481505371251e-03
01.61    5.31532375789049e-02    4.45277028921649e-02    1.42863708791340e-04    7.94405491681308e-03
01.62    5.97762221341573e-02    4.99826082039913e-02    1.43381743978897e-04    8.90506994306696e-03
01.63    6.68468494096820e-02    5.59744237469347e-02    1.45033265772086e-04    9.95961094508521e-03
01.64    7.42252994189997e-02    6.21962263204992e-02    1.50905610551240e-04    1.10530170625437e-02
01.65    8.17987677310180e-02    6.82051437100996e-02    1.65288830651848e-04    1.21067016278211e-02
01.66    8.94934874114797e-02    7.34633581606558e-02    1.93688456393516e-04    1.30255359320274e-02
01.67    9.72555899790616e-02    7.74009818105730e-02    2.42592590734820e-04    1.37090685212507e-02
01.68    1.04997546584063e-01    7.94921911139822e-02    3.18843203363829e-04    1.40650200670998e-02
01.69    1.12524150335502e-01    7.93354805788235e-02    4.28508336332655e-04    1.40234144055358e-02
01.70    1.19467535408515e-01    7.67283561712175e-02    5.75303013888166e-04    1.35496320615052e-02
01.71    1.25265872953134e-01    7.17249085177993e-02    7.58849319642267e-04    1.26543637966411e-02
01.72    1.29210385599652e-01    6.46630675289505e-02    9.73313813673430e-04    1.13981725315231e-02
01.73    1.30562544238859e-01    5.61503759231499e-02    1.20706611232694e-03    9.88874393287881e-03
01.74    1.28716577287214e-01    4.70046994586091e-02    1.44383087322850e-03    8.27024612776388e-03
01.75    1.23362872240175e-01    3.81572183070999e-02    1.66533741242764e-03    6.70613881222244e-03
01.76    1.14603710076832e-01    3.05341785300351e-02    1.85486631431809e-03    5.35836701013534e-03
01.77    1.02985815585999e-01    2.49370961056748e-02    2.00063949634836e-03    4.36642002321350e-03
01.78    8.94393034270553e-02    2.19384216766191e-02    2.09795884478078e-03    3.82923876213518e-03
01.79    7.51401395874292e-02    2.18047011959202e-02    2.14942815999363e-03    3.79205292681706e-03
01.80    6.13330999852658e-02    2.44556494793351e-02    2.16329759662604e-03    4.23956784066063e-03
01.81    4.91578278901611e-02    2.94658670821900e-02    2.15060985613563e-03    5.09660605343327e-03
01.82    3.95115294542523e-02    3.61136523844751e-02    2.12212382866867e-03    6.23690432772327e-03
01.83    3.29637770733197e-02    4.34756272356031e-02    2.08587561410633e-03    7.49977526834651e-03
01.84    2.97208070242539e-02    5.05564555760221e-02    2.04585288445091e-03    8.71272154229082e-03
01.85    2.96265508979609e-02    5.64328880519611e-02    2.00183844704908e-03    9.71637639344669e-03
01.86    3.21885467276961e-02    6.03853361876230e-02    1.95019594798880e-03    1.03871345963272e-02
01.87    3.66258191250226e-02    6.19915454078450e-02    1.88526679218493e-03    1.06531097746505e-02
01.88    4.19453319561599e-02    6.11658417367057e-02    1.80105810009293e-03    1.05006214557740e-02
01.89    4.70556576479561e-02    5.81407219273805e-02    1.69293541436964e-03    9.97072465358235e-03
01.90    5.09170144262552e-02    5.34005760567162e-02    1.55904354122205e-03    9.14753726355863e-03
01.91    5.27087179754573e-02    4.75860429485112e-02    1.40118383133373e-03    8.14160332403608e-03
01.92    5.19775798453160e-02    4.13901037459197e-02    1.22493315175930e-03    7.07195052690807e-03
01.93    4.87248703438575e-02    3.54643343904619e-02    1.03893827714152e-03    6.05000798770332e-03
01.94    4.34015408899330e-02    3.03480923451204e-02    8.53539778092191e-04    5.16755385425166e-03
01.95    3.68085713080432e-02    2.64270701747989e-02    6.79090111161023e-04    4.48975646313180e-03
